,HDPE spectra,
Raman shift [1/cm],Counts/sec,
3408.433,19.497,
3407.469,17.898368,
3406.505,16.592809,
3405.540,15.363764,
3404.576,14.429128,
3403.612,13.228564,
3402.648,11.97066,
3401.683,11.561311,
3400.719,11.56,
3399.755,12.421246,
3398.791,13.595658,
3397.826,14.543738,
3396.862,14.820886,
3395.898,13.537926,
3394.934,12.489198,
3393.969,12.844578,
3393.005,12.386252,
3392.041,10.475126,
3391.077,11.028829,
3390.113,13.009804,
3389.148,11.684912,
3388.184,8.9495572,
3387.220,8.0862627,
3386.256,8.3094411,
3385.291,7.7096789,
3384.327,7.4393922,
3383.363,9.1598294,
3382.399,10.763796,
3381.434,10.438638,
3380.470,9.505247,
3379.506,8.2217004,
3378.542,8.3143136,
3377.578,9.7718415,
3376.613,10.738404,
3375.649,10.871982,
3374.685,10.096502,
3373.721,8.6820927,
3372.756,8.9124263,
3371.792,9.8627436,
3370.828,9.7619608,
3369.864,9.1119947,
3368.899,7.3873256,
3367.935,5.9609809,
3366.971,6.1701332,
3366.007,6.6017405,
3365.042,6.3176233,
3364.078,6.4649196,
3363.114,7.2096548,
3362.150,8.1163687,
3361.186,9.4587629,
3360.221,9.1975783,
3359.257,8.1024172,
3358.293,7.4596455,
3357.329,7.2696953,
3356.364,8.1721716,
3355.400,8.717217,
3354.436,6.4411754,
3353.472,4.2535637,
3352.507,5.3024909,
3351.543,6.365097,
3350.579,5.6147094,
3349.615,6.4880419,
3348.651,9.1980518,
3347.686,9.3530053,
3346.722,7.8752876,
3345.758,8.0031352,
3344.794,9.5006606,
3343.829,9.9289793,
3342.865,8.9357628,
3341.901,7.1288545,
3340.937,5.5577463,
3339.972,6.7596018,
3339.008,8.3326677,
3338.044,8.367757,
3337.080,7.8439226,
3336.115,7.1779041,
3335.151,6.7268433,
3334.187,6.6321052,
3333.223,7.2418541,
3332.259,8.5332906,
3331.294,8.0850037,
3330.330,5.6352728,
3329.366,5.4952821,
3328.402,6.8072054,
3327.437,7.5875509,
3326.473,7.8559114,
3325.509,6.8612824,
3324.545,5.4460062,
3323.580,5.2991159,
3322.616,5.7373948,
3321.652,5.3934056,
3320.688,5.7373917,
3319.724,7.9190766,
3318.759,8.8092606,
3317.795,7.5559524,
3316.831,6.064793,
3315.867,4.3911023,
3314.902,3.0953634,
3313.938,2.6094257,
3312.974,3.9052716,
3312.010,6.4441856,
3311.045,7.6920069,
3310.081,7.954596,
3309.117,7.3662844,
3308.153,6.0456877,
3307.188,4.2760029,
3306.224,3.7104018,
3305.260,5.8045952,
3304.296,7.8359555,
3303.332,7.7332282,
3302.367,7.2196451,
3301.403,6.9622482,
3300.439,6.9005302,
3299.475,7.002568,
3298.510,6.9616332,
3297.546,6.9868918,
3296.582,6.5875426,
3295.618,6.2272252,
3294.653,6.4217457,
3293.689,6.6662868,
3292.725,6.2417872,
3291.761,5.6492902,
3290.797,6.0257302,
3289.832,6.5611785,
3288.868,5.940972,
3287.904,5.6044794,
3286.940,6.3630761,
3285.975,6.1003939,
3285.011,4.3897342,
3284.047,3.6104272,
3283.083,4.1618956,
3282.118,4.4352691,
3281.154,4.2499726,
3280.190,4.570948,
3279.226,5.0865182,
3278.261,3.5586411,
3277.297,0.66981785,
3276.333,2.9872322E-5,
3275.369,0.64566054,
3274.405,1.9211328,
3273.440,3.0388549,
3272.476,3.4308286,
3271.512,3.9070744,
3270.548,5.4780924,
3269.583,6.6128873,
3268.619,5.9092253,
3267.655,5.2991832,
3266.691,5.8054818,
3265.726,5.7772202,
3264.762,5.0833175,
3263.798,4.8121034,
3262.834,4.9383219,
3261.870,4.9810738,
3260.905,4.8542754,
3259.941,4.4678428,
3258.977,4.1780889,
3258.013,4.9522428,
3257.048,6.1678093,
3256.084,6.8427325,
3255.120,7.3036644,
3254.156,7.1524976,
3253.191,7.1493628,
3252.227,7.9155042,
3251.263,8.112373,
3250.299,6.8194574,
3249.334,5.3735124,
3248.370,4.4053066,
3247.406,4.353902,
3246.442,5.8005894,
3245.478,6.0002994,
3244.513,4.3857676,
3243.549,4.4556875,
3242.585,5.4283314,
3241.621,5.2050371,
3240.656,4.8730653,
3239.692,6.1511979,
3238.728,7.9931392,
3237.764,8.2237388,
3236.799,7.5189811,
3235.835,7.7842799,
3234.871,7.6083076,
3233.907,4.7327517,
3232.943,2.7047171,
3231.978,4.1205649,
3231.014,5.5876454,
3230.050,5.5406269,
3229.086,5.6121556,
3228.121,6.3716476,
3227.157,7.3918521,
3226.193,8.4421623,
3225.229,8.2849774,
3224.264,6.6004238,
3223.300,6.0962916,
3222.336,6.6725287,
3221.372,7.9147049,
3220.407,9.1127895,
3219.443,7.7888865,
3218.479,5.1848884,
3217.515,4.6555948,
3216.551,5.7543636,
3215.586,6.2502747,
3214.622,6.3989746,
3213.658,6.0920564,
3212.694,5.6329364,
3211.729,5.5531633,
3210.765,6.0270534,
3209.801,7.2144594,
3208.837,8.1249383,
3207.872,8.0311289,
3206.908,7.3057241,
3205.944,6.1120644,
3204.980,5.1657479,
3204.016,4.8740374,
3203.051,4.4143687,
3202.087,3.9403474,
3201.123,6.0517048,
3200.159,9.4462285,
3199.194,8.4429245,
3198.230,5.1471834,
3197.266,4.1526219,
3196.302,5.0527288,
3195.337,5.7760684,
3194.373,6.565104,
3193.409,7.465771,
3192.445,8.1174885,
3191.480,8.4351222,
3190.516,8.3991186,
3189.552,7.9678124,
3188.588,8.0504568,
3187.624,9.0529329,
3186.659,9.726162,
3185.695,9.3798576,
3184.731,8.6600238,
3183.767,7.7918667,
3182.802,7.5012291,
3181.838,7.9509633,
3180.874,8.6339866,
3179.910,9.6677593,
3178.945,9.0046496,
3177.981,7.3381355,
3177.017,6.696802,
3176.053,6.7418106,
3175.089,6.5721584,
3174.124,6.432181,
3173.160,7.4416044,
3172.196,9.0183093,
3171.232,7.7578392,
3170.267,6.0863979,
3169.303,7.3917965,
3168.339,8.8565224,
3167.375,8.9453893,
3166.410,8.7950848,
3165.446,8.6649482,
3164.482,8.6736722,
3163.518,9.3053912,
3162.553,9.4573462,
3161.589,8.3889423,
3160.625,8.385,
3159.661,10.253184,
3158.697,10.652744,
3157.732,9.3246569,
3156.768,9.3358981,
3155.804,10.631954,
3154.840,10.49103,
3153.875,9.2901401,
3152.911,8.9485018,
3151.947,9.4448913,
3150.983,9.9362532,
3150.018,10.313843,
3149.054,10.342988,
3148.090,10.296998,
3147.126,10.258249,
3146.162,10.727441,
3145.197,13.128622,
3144.233,14.793852,
3143.269,12.708634,
3142.305,9.251059,
3141.340,7.4985467,
3140.376,6.9917148,
3139.412,8.2513346,
3138.448,9.5513046,
3137.483,9.4226933,
3136.519,9.3226364,
3135.555,9.6341115,
3134.591,10.565698,
3133.626,11.7205,
3132.662,11.847936,
3131.698,11.113014,
3130.734,11.010484,
3129.770,12.047538,
3128.805,12.612638,
3127.841,12.143074,
3126.877,12.772545,
3125.913,14.429226,
3124.948,13.47674,
3123.984,12.345332,
3123.020,14.493478,
3122.056,16.987608,
3121.091,14.92657,
3120.127,10.833762,
3119.163,10.55211,
3118.199,12.612182,
3117.235,14.811611,
3116.270,17.366548,
3115.306,18.32792,
3114.342,18.516764,
3113.378,17.927346,
3112.413,17.188522,
3111.449,17.288978,
3110.485,17.487892,
3109.521,17.074188,
3108.556,15.987329,
3107.592,14.152658,
3106.628,12.990036,
3105.664,13.2789,
3104.699,14.756875,
3103.735,17.683546,
3102.771,19.794974,
3101.807,20.808676,
3100.843,20.122241,
3099.878,18.283167,
3098.914,18.759928,
3097.950,21.423012,
3096.986,21.457091,
3096.021,19.124801,
3095.057,19.404919,
3094.093,21.482986,
3093.129,21.414553,
3092.164,20.758564,
3091.200,21.214806,
3090.236,22.468109,
3089.272,24.317167,
3088.308,26.465961,
3087.343,28.373926,
3086.379,29.78289,
3085.415,29.993936,
3084.451,29.838678,
3083.486,31.723679,
3082.522,33.397638,
3081.558,33.045966,
3080.594,32.916671,
3079.629,33.80819,
3078.665,34.718678,
3077.701,34.818086,
3076.737,35.473434,
3075.772,37.80561,
3074.808,39.166332,
3073.844,37.975008,
3072.880,36.140925,
3071.916,33.889011,
3070.951,34.940338,
3069.987,39.747304,
3069.023,41.495568,
3068.059,40.221977,
3067.094,38.979952,
3066.130,38.136238,
3065.166,37.637948,
3064.202,37.376242,
3063.237,36.271555,
3062.273,34.658678,
3061.309,35.893226,
3060.345,39.404586,
3059.381,38.648061,
3058.416,36.771047,
3057.452,37.965912,
3056.488,39.732588,
3055.524,38.731279,
3054.559,36.809336,
3053.595,37.42287,
3052.631,39.40606,
3051.667,39.62373,
3050.702,39.26742,
3049.738,39.704848,
3048.774,40.165054,
3047.810,40.566295,
3046.845,41.042008,
3045.881,41.47479,
3044.917,41.845,
3043.953,42.302372,
3042.989,43.074919,
3042.024,44.025407,
3041.060,44.694906,
3040.096,44.64281,
3039.132,44.08954,
3038.167,43.534422,
3037.203,43.71395,
3036.239,44.515296,
3035.275,45.944274,
3034.310,47.785507,
3033.346,48.354764,
3032.382,47.825962,
3031.418,47.279736,
3030.453,46.803356,
3029.489,47.012884,
3028.525,48.119924,
3027.561,49.50876,
3026.597,51.33482,
3025.632,52.245372,
3024.668,52.559936,
3023.704,53.279182,
3022.740,53.934072,
3021.775,54.02798,
3020.811,54.05899,
3019.847,55.387336,
3018.883,57.768252,
3017.918,58.17007,
3016.954,56.843638,
3015.990,55.641998,
3015.026,54.89007,
3014.062,57.084555,
3013.097,59.713375,
3012.133,59.872978,
3011.169,59.645899,
3010.205,62.213753,
3009.240,65.512507,
3008.276,65.275065,
3007.312,63.978472,
3006.348,66.19685,
3005.383,68.850088,
3004.419,69.31381,
3003.455,69.004986,
3002.491,68.820078,
3001.526,68.958191,
3000.562,69.459726,
2999.598,69.913972,
2998.634,69.814149,
2997.670,70.169049,
2996.705,72.429453,
2995.741,75.216442,
2994.777,76.987428,
2993.813,78.49628,
2992.848,80.16185,
2991.884,81.014712,
2990.920,80.980024,
2989.956,81.142334,
2988.991,81.673142,
2988.027,82.384662,
2987.063,83.279012,
2986.099,84.615052,
2985.135,86.748913,
2984.170,89.729173,
2983.206,93.564506,
2982.242,95.008466,
2981.278,93.50585,
2980.313,94.517241,
2979.349,98.219014,
2978.385,102.71094,
2977.421,107.0413,
2976.456,108.89873,
2975.492,108.1403,
2974.528,107.8801,
2973.564,109.06156,
2972.599,111.82068,
2971.635,115.80784,
2970.671,118.25986,
2969.707,120.31226,
2968.743,125.60647,
2967.778,132.70518,
2966.814,138.15894,
2965.850,142.20168,
2964.886,147.98572,
2963.921,155.38052,
2962.957,161.00814,
2961.993,165.54102,
2961.029,172.31479,
2960.064,179.83993,
2959.100,186.12704,
2958.136,192.16008,
2957.172,198.03316,
2956.208,204.37756,
2955.243,212.06533,
2954.279,220.67894,
2953.315,229.79336,
2952.351,239.11658,
2951.386,246.8942,
2950.422,254.558,
2949.458,266.67288,
2948.494,279.5867,
2947.529,289.05228,
2946.565,299.89568,
2945.601,316.24174,
2944.637,336.61325,
2943.672,359.8526,
2942.708,387.26531,
2941.744,420.93826,
2940.780,460.09864,
2939.816,503.21293,
2938.851,550.03845,
2937.887,599.05072,
2936.923,649.30516,
2935.959,700.71969,
2934.994,751.64977,
2934.030,799.82426,
2933.066,846.12692,
2932.102,890.13613,
2931.137,930.86183,
2930.173,968.45254,
2929.209,1003.5006,
2928.245,1036.115,
2927.281,1065.8258,
2926.316,1091.8843,
2925.352,1114.2974,
2924.388,1131.706,
2923.424,1148.2154,
2922.459,1166.3866,
2921.495,1181.996,
2920.531,1191.5014,
2919.567,1197.8044,
2918.602,1204.0006,
2917.638,1209.4978,
2916.674,1213.4004,
2915.710,1217.0022,
2914.745,1220.7998,
2913.781,1224.0982,
2912.817,1228.4998,
2911.853,1237.1056,
2910.889,1250.0154,
2909.924,1266.6888,
2908.960,1287.6962,
2907.996,1313.8094,
2907.032,1344.8272,
2906.067,1379.4097,
2905.103,1416.588,
2904.139,1458.6078,
2903.175,1506.4314,
2902.210,1554.9044,
2901.246,1603.1778,
2900.282,1652.5012,
2899.318,1701.1228,
2898.354,1746.0418,
2897.389,1788.1748,
2896.425,1828.4954,
2895.461,1867.0134,
2894.497,1903.0272,
2893.532,1934.8766,
2892.568,1967.5918,
2891.604,2002.608,
2890.640,2036.6234,
2889.675,2069.1074,
2888.711,2105.086,
2887.747,2144.1044,
2886.783,2190.2334,
2885.818,2247.61,
2884.854,2320.8616,
2883.890,2415.1962,
2882.926,2541.7742,
2881.962,2709.3227,
2880.997,2949.3409,
2880.033,3267.7432,
2879.069,3643.1316,
2878.105,4073.8461,
2877.140,4385.2907,
2876.176,4566.4428,
2875.212,4550.3626,
2874.248,4327.765,
2873.283,3967.5122,
2872.319,3515.605,
2871.355,3094.3894,
2870.391,2742.7594,
2869.427,2469.6033,
2868.462,2272.7165,
2867.498,2121.7162,
2866.534,2022.773,
2865.570,1950.9604,
2864.605,1905.0335,
2863.641,1874.9074,
2862.677,1856.0982,
2861.713,1848.9038,
2860.748,1854.2089,
2859.784,1872.7928,
2858.820,1903.604,
2857.856,1943.8288,
2856.891,1992.9042,
2855.927,2046.772,
2854.963,2107.6978,
2853.999,2177.1352,
2853.035,2255.7848,
2852.070,2346.6402,
2851.106,2450.282,
2850.142,2563.1374,
2849.178,2683.2007,
2848.213,2809.8357,
2847.249,2944.3582,
2846.285,3079.4236,
2845.321,3215.2769,
2844.356,3332.2003,
2843.392,3428.157,
2842.428,3468.9994,
2841.464,3452.257,
2840.500,3369.3522,
2839.535,3222.1863,
2838.571,3023.2202,
2837.607,2778.5981,
2836.643,2512.0557,
2835.678,2230.204,
2834.714,1962.0642,
2833.750,1704.7436,
2832.786,1474.6513,
2831.821,1270.7819,
2830.857,1096.1658,
2829.893,948.85614,
2828.929,819.56283,
2827.964,706.02508,
2827.000,610.01939,
2826.036,530.09242,
2825.072,460.46286,
2824.108,400.65602,
2823.143,353.79057,
2822.179,319.57574,
2821.215,288.69166,
2820.251,262.30007,
2819.286,237.40967,
2818.322,214.55698,
2817.358,196.5876,
2816.394,183.12133,
2815.429,170.04834,
2814.465,156.58596,
2813.501,144.73958,
2812.537,134.60632,
2811.573,127.58582,
2810.608,123.4524,
2809.644,117.51058,
2808.680,110.28738,
2807.716,103.53485,
2806.751,97.632241,
2805.787,92.285252,
2804.823,87.354114,
2803.859,83.812714,
2802.894,82.061426,
2801.930,79.888808,
2800.966,76.337434,
2800.002,71.304916,
2799.037,64.465632,
2798.073,61.197663,
2797.109,62.309972,
2796.145,61.905576,
2795.181,58.806139,
2794.216,56.833276,
2793.252,56.393072,
2792.288,55.053178,
2791.324,52.499116,
2790.359,50.161834,
2789.395,48.214584,
2788.431,45.320198,
2787.467,40.962679,
2786.502,38.98773,
2785.538,40.410376,
2784.574,40.7469,
2783.610,38.596824,
2782.646,36.379582,
2781.681,34.982804,
2780.717,34.402052,
2779.753,34.825856,
2778.789,34.459252,
2777.824,32.46742,
2776.860,31.323262,
2775.896,31.953184,
2774.932,32.67622,
2773.967,32.973513,
2773.003,32.383216,
2772.039,30.773876,
2771.075,29.722402,
2770.110,30.389702,
2769.146,30.44897,
2768.182,28.38404,
2767.218,27.27575,
2766.254,28.888858,
2765.289,29.79342,
2764.325,28.293236,
2763.361,26.242398,
2762.397,24.40092,
2761.432,24.303076,
2760.468,26.705292,
2759.504,28.577806,
2758.540,27.554205,
2757.575,26.375748,
2756.611,28.462098,
2755.647,31.496088,
2754.683,33.186662,
2753.719,34.422224,
2752.754,35.621316,
2751.790,36.20495,
2750.826,36.019126,
2749.862,36.336147,
2748.897,37.635081,
2747.933,39.38561,
2746.969,41.482412,
2746.005,43.057585,
2745.040,42.500766,
2744.076,41.738276,
2743.112,45.28963,
2742.148,50.406215,
2741.183,52.404744,
2740.219,53.735337,
2739.255,57.036952,
2738.291,61.48563,
2737.327,67.084974,
2736.362,73.345017,
2735.398,78.716184,
2734.434,82.54805,
2733.470,85.708949,
2732.505,89.320205,
2731.541,95.598182,
2730.577,104.38184,
2729.613,113.80683,
2728.648,123.86252,
2727.684,136.07478,
2726.720,148.90046,
2725.756,156.94318,
2724.792,162.81078,
2723.827,173.31407,
2722.863,188.1188,
2721.899,201.2741,
2720.935,211.41686,
2719.970,219.14457,
2719.006,224.26888,
2718.042,229.04112,
2717.078,233.26186,
2716.113,235.73993,
2715.149,237.30944,
2714.185,234.34908,
2713.221,227.1553,
2712.256,219.49005,
2711.292,212.74332,
2710.328,207.73004,
2709.364,204.81754,
2708.400,199.65116,
2707.435,190.4458,
2706.471,182.02124,
2705.507,175.45776,
2704.543,168.82408,
2703.578,161.61554,
2702.614,153.69226,
2701.650,145.92868,
2700.686,139.30599,
2699.721,133.44964,
2698.757,128.30217,
2697.793,124.60974,
2696.829,120.29632,
2695.865,113.55324,
2694.900,107.00366,
2693.936,101.46042,
2692.972,96.230129,
2692.008,91.656952,
2691.043,88.246377,
2690.079,86.448382,
2689.115,85.693862,
2688.151,85.187044,
2687.186,83.922515,
2686.222,80.675138,
2685.258,76.543578,
2684.294,73.391287,
2683.329,70.622268,
2682.365,68.664954,
2681.401,67.019006,
2680.437,64.9781,
2679.473,63.104969,
2678.508,61.000317,
2677.544,59.02228,
2676.580,58.770274,
2675.616,59.567165,
2674.651,58.55777,
2673.687,56.125678,
2672.723,55.044916,
2671.759,54.640602,
2670.794,54.063178,
2669.830,53.923058,
2668.866,53.071876,
2667.902,51.23813,
2666.938,49.663075,
2665.973,48.770494,
2665.009,48.05705,
2664.045,47.62817,
2663.081,48.039702,
2662.116,48.82046,
2661.152,48.063158,
2660.188,45.445008,
2659.224,45.474819,
2658.259,49.176843,
2657.295,51.389238,
2656.331,52.303225,
2655.367,53.91834,
2654.402,56.066993,
2653.438,57.929102,
2652.474,59.135002,
2651.510,59.94936,
2650.546,60.690343,
2649.581,61.04378,
2648.617,60.45608,
2647.653,59.385548,
2646.689,58.089144,
2645.724,57.061778,
2644.760,57.296936,
2643.796,58.342326,
2642.832,59.891103,
2641.867,60.038886,
2640.903,56.566428,
2639.939,51.677838,
2638.975,49.467886,
2638.010,49.263866,
2637.046,48.804252,
2636.082,48.437024,
2635.118,47.9286,
2634.154,46.973675,
2633.189,45.508006,
2632.225,43.998304,
2631.261,43.709132,
2630.297,44.175554,
2629.332,43.59342,
2628.368,42.282445,
2627.404,42.622248,
2626.440,44.335778,
2625.475,43.982715,
2624.511,41.369247,
2623.547,39.482992,
2622.583,38.30144,
2621.619,39.200197,
2620.654,42.475986,
2619.690,43.080922,
2618.726,40.836744,
2617.762,40.116656,
2616.797,42.092513,
2615.833,44.079468,
2614.869,44.83413,
2613.905,45.434651,
2612.940,46.3642,
2611.976,47.40158,
2611.012,48.77706,
2610.048,49.54462,
2609.083,48.868854,
2608.119,47.927512,
2607.155,46.959058,
2606.191,45.973772,
2605.227,45.439169,
2604.262,45.624874,
2603.298,46.823764,
2602.334,48.691288,
2601.370,49.690545,
2600.405,49.100124,
2599.441,45.727127,
2598.477,41.599248,
2597.513,43.25035,
2596.548,46.952568,
2595.584,47.556716,
2594.620,46.360984,
2593.656,45.050502,
2592.692,44.049222,
2591.727,43.256483,
2590.763,42.821054,
2589.799,44.02212,
2588.835,47.141877,
2587.870,49.367337,
2586.906,49.97584,
2585.942,48.621212,
2584.978,45.063413,
2584.013,44.231852,
2583.049,46.725002,
2582.085,48.575986,
2581.121,48.40299,
2580.156,46.625106,
2579.192,43.200842,
2578.228,39.176216,
2577.264,36.005232,
2576.300,34.224859,
2575.335,35.163366,
2574.371,36.022836,
2573.407,32.952954,
2572.443,29.387222,
2571.478,28.38644,
2570.514,28.438982,
2569.550,28.422926,
2568.586,27.94107,
2567.621,26.488395,
2566.657,24.183075,
2565.693,21.51796,
2564.729,19.239418,
2563.765,20.074216,
2562.800,23.334031,
2561.836,23.016038,
2560.872,19.717884,
2559.908,19.402567,
2558.943,21.248631,
2557.979,21.513932,
2557.015,20.567828,
2556.051,19.811454,
2555.086,19.042463,
2554.122,17.577578,
2553.158,15.802968,
2552.194,15.436149,
2551.229,17.438999,
2550.265,19.362976,
2549.301,19.56199,
2548.337,19.339188,
2547.373,19.772494,
2546.408,20.30964,
2545.444,19.98206,
2544.480,19.086794,
2543.516,18.399532,
2542.551,17.800669,
2541.587,16.895292,
2540.623,16.357182,
2539.659,17.490343,
2538.694,19.572207,
2537.730,19.910844,
2536.766,19.005034,
2535.802,20.461118,
2534.838,22.662252,
2533.873,21.908452,
2532.909,19.46128,
2531.945,18.940542,
2530.981,20.407986,
2530.016,21.56215,
2529.052,22.104864,
2528.088,22.303846,
2527.124,21.641752,
2526.159,21.295568,
2525.195,21.98973,
2524.231,22.378988,
2523.267,22.252464,
2522.302,23.053592,
2521.338,24.929012,
2520.374,26.459934,
2519.410,26.950986,
2518.446,26.920868,
2517.481,26.779094,
2516.517,26.686016,
2515.553,26.894982,
2514.589,26.834968,
2513.624,25.525467,
2512.660,23.86153,
2511.696,24.57725,
2510.732,26.084286,
2509.767,24.986084,
2508.803,22.46215,
2507.839,21.852034,
2506.875,23.070142,
2505.911,23.345881,
2504.946,22.223666,
2503.982,22.424978,
2503.018,24.874472,
2502.054,26.130609,
2501.089,24.512183,
2500.125,23.277304,
2499.161,23.71198,
2498.197,23.624988,
2497.232,22.222706,
2496.268,20.725575,
2495.304,20.061006,
2494.340,20.127262,
2493.375,20.57717,
2492.411,21.318614,
2491.447,22.219966,
2490.483,23.047176,
2489.519,23.438926,
2488.554,23.360052,
2487.590,22.822094,
2486.626,22.17498,
2485.662,22.11223,
2484.697,22.40319,
2483.733,22.88185,
2482.769,23.682163,
2481.805,24.632612,
2480.840,25.566332,
2479.876,26.913394,
2478.912,28.502032,
2477.948,29.451306,
2476.984,30.041142,
2476.019,30.181918,
2475.055,29.006122,
2474.091,28.02406,
2473.127,28.182645,
2472.162,28.928459,
2471.198,30.248682,
2470.234,31.115685,
2469.270,29.818311,
2468.305,27.497021,
2467.341,27.527988,
2466.377,29.336998,
2465.413,29.324319,
2464.448,28.170161,
2463.484,28.138273,
2462.520,28.106947,
2461.556,28.075621,
2460.592,28.044294,
2459.627,28.013,
2458.663,27.981675,
2457.699,27.950348,
2456.735,27.919022,
2455.770,27.887728,
2454.806,27.856402,
2453.842,27.825075,
2452.878,27.79375,
2451.913,27.762456,
2450.949,27.731129,
2449.985,27.699803,
2449.021,27.668477,
2448.057,27.637151,
2447.092,27.605857,
2446.128,27.574531,
2445.164,27.543205,
2444.200,27.511878,
2443.235,27.480584,
2442.271,27.449259,
2441.307,27.417932,
2440.343,27.386606,
2439.378,27.355312,
2438.414,27.323986,
2437.450,27.292659,
2436.486,27.261334,
2435.521,27.23004,
2434.557,27.198713,
2433.593,27.167387,
2432.629,27.136061,
2431.665,27.104734,
2430.700,27.073441,
2429.736,27.042115,
2428.772,27.010788,
2427.808,26.979462,
2426.843,26.948168,
2425.879,26.916842,
2424.915,26.885516,
2423.951,26.85419,
2422.986,26.822895,
2422.022,26.79157,
2421.058,26.760243,
2420.094,26.728918,
2419.130,26.697591,
2418.165,26.666297,
2417.201,26.634971,
2416.237,26.603645,
2415.273,26.572318,
2414.308,26.541025,
2413.344,26.509699,
2412.380,26.478372,
2411.416,26.447046,
2410.451,26.415752,
2409.487,26.384426,
2408.523,26.3531,
2407.559,26.321774,
2406.594,26.290479,
2405.630,26.259154,
2404.666,26.227827,
2403.702,26.196501,
2402.738,26.165175,
2401.773,26.133881,
2400.809,26.102554,
2399.845,26.071229,
2398.881,26.039902,
2397.916,26.008608,
2396.952,25.977283,
2395.988,25.945956,
2395.024,25.914629,
2394.059,25.883336,
2393.095,22.98026,
2392.131,20.09687,
2391.167,17.50128,
2390.203,16.15561,
2389.238,15.773218,
2388.274,15.690008,
2387.310,15.51088,
2386.346,15.206707,
2385.381,14.874236,
2384.417,14.197152,
2383.453,13.413935,
2382.489,13.163284,
2381.524,13.544935,
2380.560,13.702942,
2379.596,13.06187,
2378.632,11.993034,
2377.667,10.397845,
2376.703,8.6724631,
2375.739,7.921212,
2374.775,7.8402216,
2373.811,8.1000549,
2372.846,8.3676293,
2371.882,8.0119546,
2370.918,7.3797202,
2369.954,7.1383934,
2368.989,7.3758957,
2368.025,7.9730261,
2367.061,8.6662083,
2366.097,8.7087798,
2365.132,7.9408931,
2364.168,7.49739,
2363.204,7.735708,
2362.240,7.879107,
2361.276,7.8921578,
2360.311,7.8510233,
2359.347,7.693213,
2358.383,7.3845047,
2357.419,6.8988575,
2356.454,6.8509338,
2355.490,8.0994256,
2354.526,9.4191733,
2353.562,8.182569,
2352.597,5.8717889,
2351.633,5.7357482,
2350.669,6.435132,
2349.705,6.6876041,
2348.740,7.021517,
2347.776,7.3512368,
2346.812,7.5475978,
2345.848,6.7980835,
2344.884,5.0732945,
2343.919,3.6061282,
2342.955,3.086277,
2341.991,2.5000243,
2341.027,1.0838112,
2340.062,0.00092605879,
2339.098,0.78118679,
2338.134,2.5827865,
2337.170,4.5322993,
2336.205,6.5815355,
2335.241,7.8943443,
2334.277,8.3167606,
2333.313,7.6672976,
2332.349,6.3785919,
2331.384,5.690686,
2330.420,6.198361,
2329.456,7.3428092,
2328.492,8.5928269,
2327.527,9.520052,
2326.563,10.006896,
2325.599,11.301825,
2324.635,14.35972,
2323.670,16.63964,
2322.706,15.983232,
2321.742,14.02475,
2320.778,12.129767,
2319.813,10.129677,
2318.849,7.7723539,
2317.885,5.7985106,
2316.921,5.7330092,
2315.957,7.213937,
2314.992,8.1865898,
2314.028,8.3812722,
2313.064,7.1998355,
2312.100,4.6675149,
2311.135,4.4433715,
2310.171,7.0710626,
2309.207,8.0915908,
2308.243,5.5912833,
2307.278,3.824381,
2306.314,6.3553413,
2305.350,10.077036,
2304.386,10.619416,
2303.422,9.5597841,
2302.457,9.8343474,
2301.493,10.753934,
2300.529,10.506514,
2299.565,9.3283457,
2298.600,9.267842,
2297.636,10.167812,
2296.672,11.125262,
2295.708,12.074343,
2294.743,12.525551,
2293.779,12.105146,
2292.815,11.378906,
2291.851,10.699777,
2290.886,10.341131,
2289.922,12.071162,
2288.958,14.582,
2287.994,14.2994,
2287.030,13.05989,
2286.065,12.94607,
2285.101,12.828016,
2284.137,13.711538,
2283.173,15.260536,
2282.208,14.702424,
2281.244,11.986748,
2280.280,10.659376,
2279.316,12.460831,
2278.351,15.102001,
2277.387,17.11517,
2276.423,18.314858,
2275.459,16.315252,
2274.494,13.171082,
2273.530,14.045518,
2272.566,16.30885,
2271.602,17.051996,
2270.638,17.040696,
2269.673,16.704232,
2268.709,16.189104,
2267.745,16.507484,
2266.781,18.236159,
2265.816,19.751248,
2264.852,19.54807,
2263.888,19.399226,
2262.924,20.974161,
2261.959,22.824805,
2260.995,24.0784,
2260.031,25.206002,
2259.067,25.717958,
2258.103,25.631572,
2257.138,25.19227,
2256.174,24.409104,
2255.210,23.351536,
2254.246,22.031437,
2253.281,20.163409,
2252.317,18.061567,
2251.353,17.722594,
2250.389,20.49403,
2249.424,23.397801,
2248.460,23.558934,
2247.496,23.451162,
2246.532,25.566243,
2245.567,27.781881,
2244.603,27.823978,
2243.639,26.804062,
2242.675,26.434906,
2241.711,26.210438,
2240.746,24.490174,
2239.782,21.56258,
2238.818,20.289492,
2237.854,22.013585,
2236.889,24.070685,
2235.925,24.913718,
2234.961,25.571084,
2233.997,26.141078,
2233.032,26.264925,
2232.068,26.237014,
2231.104,26.259998,
2230.140,26.118965,
2229.176,26.048636,
2228.211,26.697604,
2227.247,27.674876,
2226.283,27.586589,
2225.319,26.436905,
2224.354,26.324084,
2223.390,28.091532,
2222.426,29.218852,
2221.462,28.543518,
2220.497,27.859266,
2219.533,27.797024,
2218.569,27.840004,
2217.605,27.890016,
2216.640,27.918941,
2215.676,27.836044,
2214.712,27.738006,
2213.748,27.437724,
2212.784,26.795306,
2211.819,27.130772,
2210.855,28.84367,
2209.891,29.439658,
2208.927,28.264749,
2207.962,27.9421,
2206.998,29.480492,
2206.034,31.01699,
2205.070,30.946164,
2204.105,29.636821,
2203.141,28.207668,
2202.177,27.267996,
2201.213,27.0422,
2200.249,27.44266,
2199.284,28.112594,
2198.320,28.754922,
2197.356,29.822666,
2196.392,31.658939,
2195.427,33.947299,
2194.463,36.628306,
2193.499,38.177826,
2192.535,37.402702,
2191.570,35.573849,
2190.606,33.971636,
2189.642,32.989032,
2188.678,33.364048,
2187.713,35.196345,
2186.749,37.616707,
2185.785,40.300866,
2184.821,42.095048,
2183.857,42.205347,
2182.892,43.672014,
2181.928,47.961196,
2180.964,51.497272,
2180.000,52.416961,
2179.035,52.367111,
2178.071,52.510954,
2177.107,52.69905,
2176.143,53.010284,
2175.178,53.451593,
2174.214,53.100162,
2173.250,51.700954,
2172.286,49.535436,
2171.322,46.442123,
2170.357,44.547138,
2169.393,45.004946,
2168.429,45.297672,
2167.465,44.407062,
2166.500,43.306812,
2165.536,42.145294,
2164.572,40.67263,
2163.608,39.068856,
2162.643,37.468845,
2161.679,36.042558,
2160.715,35.457034,
2159.751,35.83332,
2158.786,36.38886,
2157.822,36.65486,
2156.858,36.703998,
2155.894,36.73013,
2154.930,37.025636,
2153.965,37.713542,
2153.001,38.445866,
2152.037,38.74593,
2151.073,38.511722,
2150.108,38.159183,
2149.144,38.22298,
2148.180,38.869156,
2147.216,39.823463,
2146.251,40.536446,
2145.287,40.152176,
2144.323,38.372966,
2143.359,37.116476,
2142.395,38.049578,
2141.430,39.635056,
2140.466,40.575896,
2139.502,40.949938,
2138.538,40.783636,
2137.573,40.359311,
2136.609,40.500964,
2135.645,41.262122,
2134.681,41.78111,
2133.716,41.933288,
2132.752,42.520774,
2131.788,44.154156,
2130.824,45.750062,
2129.859,45.857633,
2128.895,45.270308,
2127.931,44.569028,
2126.967,44.252616,
2126.003,45.638477,
2125.038,48.303238,
2124.074,49.49179,
2123.110,48.09464,
2122.146,46.92474,
2121.181,47.860495,
2120.217,49.222572,
2119.253,50.325129,
2118.289,51.084506,
2117.324,50.328903,
2116.360,49.535358,
2115.396,50.545054,
2114.432,52.240464,
2113.468,53.137942,
2112.503,53.080034,
2111.539,52.529058,
2110.575,51.89374,
2109.611,51.208128,
2108.646,50.197735,
2107.682,49.82709,
2106.718,52.329768,
2105.754,55.514876,
2104.789,55.344056,
2103.825,53.66164,
2102.861,51.152656,
2101.897,47.841239,
2100.932,46.548027,
2099.968,47.253634,
2099.004,48.688952,
2098.040,50.616838,
2097.076,52.476296,
2096.111,52.792792,
2095.147,52.262092,
2094.183,51.814848,
2093.219,51.331878,
2092.254,51.179753,
2091.290,50.700148,
2090.326,51.851488,
2089.362,54.632698,
2088.397,54.173083,
2087.433,50.445666,
2086.469,48.826088,
2085.505,51.194913,
2084.541,52.941669,
2083.576,50.625354,
2082.612,47.23134,
2081.648,46.292274,
2080.684,47.007545,
2079.719,48.785716,
2078.755,51.51935,
2077.791,52.651854,
2076.827,52.061808,
2075.862,51.799316,
2074.898,52.132874,
2073.934,52.170952,
2072.970,51.737926,
2072.005,51.613553,
2071.041,52.525532,
2070.077,53.516972,
2069.113,52.179414,
2068.149,48.698376,
2067.184,46.971124,
2066.220,48.283782,
2065.256,49.823248,
2064.292,50.601532,
2063.327,51.26376,
2062.363,51.29699,
2061.399,50.822016,
2060.435,50.915612,
2059.470,51.836334,
2058.506,53.159416,
2057.542,54.220982,
2056.578,53.815944,
2055.614,51.814061,
2054.649,50.885538,
2053.685,52.743824,
2052.721,54.13531,
2051.757,52.365163,
2050.792,50.263506,
2049.828,49.899084,
2048.864,50.302452,
2047.900,52.096821,
2046.935,54.569827,
2045.971,56.017464,
2045.007,56.417044,
2044.043,56.79426,
2043.078,57.228777,
2042.114,57.215008,
2041.150,56.75401,
2040.186,55.971794,
2039.222,55.526086,
2038.257,55.616942,
2037.293,55.147076,
2036.329,54.378178,
2035.365,54.930088,
2034.400,56.276504,
2033.436,57.872524,
2032.472,59.657238,
2031.508,60.93823,
2030.543,61.281463,
2029.579,60.625286,
2028.615,58.191862,
2027.651,55.333566,
2026.687,56.399469,
2025.722,59.810043,
2024.758,61.312866,
2023.794,61.920858,
2022.830,61.561668,
2021.865,60.047077,
2020.901,59.03623,
2019.937,59.141128,
2018.973,59.63727,
2018.008,60.001939,
2017.044,60.154944,
2016.080,59.987989,
2015.116,59.896756,
2014.151,61.148848,
2013.187,63.841648,
2012.223,65.177976,
2011.259,63.710526,
2010.295,62.695217,
2009.330,63.975181,
2008.366,64.55991,
2007.402,62.588174,
2006.438,60.075345,
2005.473,59.269827,
2004.509,60.061768,
2003.545,61.193142,
2002.581,61.938318,
2001.616,62.410118,
2000.652,62.986752,
1999.688,64.168134,
1998.724,66.650089,
1997.760,68.670625,
1996.795,65.369876,
1995.831,59.77747,
1994.867,59.94576,
1993.903,64.340863,
1992.938,66.446513,
1991.974,64.996322,
1991.010,64.07041,
1990.046,65.630673,
1989.081,66.529465,
1988.117,64.652674,
1987.153,62.791134,
1986.189,63.865307,
1985.224,66.009698,
1984.260,67.382318,
1983.296,68.464986,
1982.332,68.914848,
1981.368,68.590835,
1980.403,67.372773,
1979.439,65.494282,
1978.475,63.989894,
1977.511,63.67491,
1976.546,64.788272,
1975.582,67.402248,
1974.618,70.519306,
1973.654,72.078932,
1972.689,71.979579,
1971.725,71.18034,
1970.761,69.723928,
1969.797,68.492858,
1968.833,68.232652,
1967.868,68.867642,
1966.904,70.90384,
1965.940,73.183139,
1964.976,73.524687,
1964.011,72.049034,
1963.047,70.722286,
1962.083,70.518082,
1961.119,70.82744,
1960.154,71.412643,
1959.190,72.848492,
1958.226,75.687374,
1957.262,78.552972,
1956.297,78.50607,
1955.333,76.771852,
1954.369,75.798006,
1953.405,75.756394,
1952.441,76.582207,
1951.476,77.83721,
1950.512,78.565894,
1949.548,78.157806,
1948.584,77.5896,
1947.619,78.318611,
1946.655,79.679616,
1945.691,79.589754,
1944.727,78.375114,
1943.762,78.542021,
1942.798,80.414214,
1941.834,80.966902,
1940.870,79.458796,
1939.906,79.089541,
1938.941,81.548629,
1937.977,84.347795,
1937.013,84.641492,
1936.049,83.407326,
1935.084,83.771746,
1934.120,86.087512,
1933.156,87.538886,
1932.192,87.118652,
1931.227,86.660323,
1930.263,86.871926,
1929.299,87.180028,
1928.335,87.380096,
1927.370,87.534448,
1926.406,88.48154,
1925.442,89.962998,
1924.478,90.582782,
1923.514,90.130152,
1922.549,89.252548,
1921.585,88.069164,
1920.621,87.01016,
1919.657,87.477022,
1918.692,88.708898,
1917.728,89.268846,
1916.764,89.496722,
1915.800,88.150089,
1914.835,85.387948,
1913.871,83.186912,
1912.907,81.906986,
1911.943,81.698434,
1910.978,82.483171,
1910.014,83.596386,
1909.050,84.375948,
1908.086,84.956391,
1907.122,85.896,
1906.157,87.006234,
1905.193,87.136974,
1904.229,85.899654,
1903.265,84.66183,
1902.300,84.43792,
1901.336,84.160096,
1900.372,82.623718,
1899.408,80.632025,
1898.443,79.073288,
1897.479,78.236402,
1896.515,78.435004,
1895.551,79.279524,
1894.587,80.353577,
1893.622,81.975997,
1892.658,83.550789,
1891.694,82.8604,
1890.730,81.14549,
1889.765,80.534636,
1888.801,79.632246,
1887.837,77.834716,
1886.873,76.502389,
1885.908,77.060893,
1884.944,78.995208,
1883.980,81.05312,
1883.016,82.64222,
1882.051,83.03399,
1881.087,81.485846,
1880.123,79.054152,
1879.159,77.881013,
1878.195,77.911418,
1877.230,77.26844,
1876.266,75.56734,
1875.302,75.11286,
1874.338,78.142858,
1873.373,81.861573,
1872.409,82.024946,
1871.445,80.668976,
1870.481,80.50433,
1869.516,81.026396,
1868.552,80.392302,
1867.588,78.477988,
1866.624,77.171255,
1865.660,77.688809,
1864.695,78.516492,
1863.731,78.579992,
1862.767,79.079818,
1861.803,81.381756,
1860.838,84.661464,
1859.874,85.71072,
1858.910,84.304684,
1857.946,82.855934,
1856.981,82.762121,
1856.017,82.895946,
1855.053,81.947868,
1854.089,80.310179,
1853.124,78.856196,
1852.160,77.807568,
1851.196,77.809,
1850.232,79.48375,
1849.268,81.241224,
1848.303,81.487832,
1847.339,81.869926,
1846.375,83.311218,
1845.411,84.063928,
1844.446,82.677834,
1843.482,79.923916,
1842.518,77.080684,
1841.554,75.004273,
1840.589,75.433769,
1839.625,78.957344,
1838.661,82.764012,
1837.697,83.616472,
1836.733,82.558001,
1835.768,81.541618,
1834.804,80.906078,
1833.840,80.68202,
1832.876,80.737266,
1831.911,81.051269,
1830.947,81.632848,
1829.983,82.188034,
1829.019,82.335676,
1828.054,81.878529,
1827.090,80.74845,
1826.126,79.097858,
1825.162,77.434456,
1824.197,76.481667,
1823.233,76.823816,
1822.269,78.686904,
1821.305,80.673058,
1820.341,80.804762,
1819.376,80.545174,
1818.412,81.587802,
1817.448,83.112767,
1816.484,82.320581,
1815.519,79.216302,
1814.555,77.699496,
1813.591,79.412364,
1812.627,81.721055,
1811.662,81.805959,
1810.698,80.027826,
1809.734,78.06297,
1808.770,76.503534,
1807.806,75.577876,
1806.841,75.452076,
1805.877,75.500994,
1804.913,75.218932,
1803.949,75.031348,
1802.984,75.439698,
1802.020,76.45574,
1801.056,76.982914,
1800.092,76.603888,
1799.127,76.447384,
1798.163,76.973793,
1797.199,78.19723,
1796.235,80.726375,
1795.270,83.115525,
1794.306,82.620264,
1793.342,80.67109,
1792.378,79.123478,
1791.414,77.930846,
1790.449,78.848386,
1789.485,81.72347,
1788.521,82.456084,
1787.557,79.401694,
1786.592,76.46283,
1785.628,77.480672,
1784.664,81.16937,
1783.700,83.446542,
1782.735,82.739512,
1781.771,81.287666,
1780.807,81.415028,
1779.843,82.54553,
1778.879,83.586754,
1777.914,85.351946,
1776.950,86.474874,
1775.986,86.10975,
1775.022,85.437586,
1774.057,84.953356,
1773.093,85.51286,
1772.129,87.453622,
1771.165,90.113753,
1770.200,92.553497,
1769.236,93.487638,
1768.272,91.624672,
1767.308,88.218771,
1766.343,87.824651,
1765.379,92.42958,
1764.415,97.846778,
1763.451,100.33066,
1762.487,101.84246,
1761.522,104.49824,
1760.558,106.91956,
1759.594,104.95846,
1758.630,99.915582,
1757.665,98.12124,
1756.701,100.50924,
1755.737,101.76956,
1754.773,99.139685,
1753.808,95.591623,
1752.844,93.758832,
1751.880,92.59996,
1750.916,91.26721,
1749.952,89.730195,
1748.987,86.922661,
1748.023,82.805442,
1747.059,80.109114,
1746.095,80.41221,
1745.130,81.816976,
1744.166,82.830752,
1743.202,83.466044,
1742.238,83.64685,
1741.273,83.440713,
1740.309,84.473604,
1739.345,88.090304,
1738.381,91.069804,
1737.416,89.028558,
1736.452,84.418397,
1735.488,81.91109,
1734.524,81.235554,
1733.560,80.239754,
1732.595,78.903878,
1731.631,78.811016,
1730.667,80.228482,
1729.703,81.78162,
1728.738,82.560989,
1727.774,83.028854,
1726.810,83.889204,
1725.846,85.067721,
1724.881,86.163964,
1723.917,86.995628,
1722.953,87.249966,
1721.989,86.303174,
1721.025,84.715154,
1720.060,83.872494,
1719.096,83.073082,
1718.132,81.963618,
1717.168,80.966128,
1716.203,81.112894,
1715.239,82.564652,
1714.275,83.845958,
1713.311,83.671312,
1712.346,82.728199,
1711.382,82.387128,
1710.418,82.659032,
1709.454,82.966434,
1708.489,83.701395,
1707.525,85.11827,
1706.561,87.515928,
1705.597,90.941909,
1704.633,90.738345,
1703.668,86.843541,
1702.704,83.066634,
1701.740,80.096266,
1700.776,77.773075,
1699.811,76.618488,
1698.847,78.22451,
1697.883,83.292098,
1696.919,89.432302,
1695.954,92.903632,
1694.990,93.324814,
1694.026,92.099892,
1693.062,89.44752,
1692.098,86.63046,
1691.133,86.09531,
1690.169,86.81593,
1689.205,87.954602,
1688.241,89.508291,
1687.276,88.695584,
1686.312,84.797912,
1685.348,81.669898,
1684.384,81.26625,
1683.419,82.968516,
1682.455,86.65263,
1681.491,90.526034,
1680.527,90.819535,
1679.562,88.364459,
1678.598,86.956716,
1677.634,87.419988,
1676.670,88.682978,
1675.706,90.813525,
1674.741,92.429954,
1673.777,91.526148,
1672.813,89.296744,
1671.849,88.501218,
1670.884,90.011852,
1669.920,90.700794,
1668.956,88.30749,
1667.992,85.540916,
1667.027,85.416628,
1666.063,86.407566,
1665.099,86.678992,
1664.135,86.526352,
1663.171,87.191979,
1662.206,89.141878,
1661.242,90.869842,
1660.278,90.632428,
1659.314,89.178057,
1658.349,88.103766,
1657.385,87.499138,
1656.421,86.948958,
1655.457,86.788666,
1654.492,87.688851,
1653.528,89.706261,
1652.564,91.495856,
1651.600,90.277937,
1650.635,86.854726,
1649.671,85.076896,
1648.707,85.706988,
1647.743,86.8894,
1646.779,87.749402,
1645.814,88.173728,
1644.850,87.586092,
1643.886,86.268836,
1642.922,85.770576,
1641.957,86.479712,
1640.993,86.462006,
1640.029,84.491774,
1639.065,83.303767,
1638.100,85.926036,
1637.136,89.792328,
1636.172,89.174796,
1635.208,85.23237,
1634.244,84.059997,
1633.279,86.016884,
1632.315,87.741852,
1631.351,87.868698,
1630.387,87.111858,
1629.422,85.818915,
1628.458,83.93542,
1627.494,81.736494,
1626.530,79.795078,
1625.565,78.558658,
1624.601,78.77892,
1623.637,80.417224,
1622.673,82.227091,
1621.708,84.022944,
1620.744,85.536246,
1619.780,86.573986,
1618.816,86.500418,
1617.852,85.261783,
1616.887,83.986811,
1615.923,83.517072,
1614.959,83.282684,
1613.995,82.329678,
1613.030,80.711619,
1612.066,79.163448,
1611.102,77.878724,
1610.138,76.457154,
1609.173,75.212438,
1608.209,74.990094,
1607.245,76.424118,
1606.281,78.504884,
1605.317,78.289465,
1604.352,75.818396,
1603.388,73.57318,
1602.424,72.719118,
1601.460,73.012114,
1600.495,74.266119,
1599.531,75.729681,
1598.567,75.798498,
1597.603,73.915311,
1596.638,71.666158,
1595.674,70.392452,
1594.710,69.200768,
1593.746,67.400008,
1592.781,65.782202,
1591.817,66.53163,
1590.853,69.132976,
1589.889,69.946216,
1588.925,68.297431,
1587.960,66.663031,
1586.996,66.545018,
1586.032,67.125064,
1585.068,67.311732,
1584.103,66.986458,
1583.139,65.96529,
1582.175,63.803664,
1581.211,62.12368,
1580.246,63.118534,
1579.282,64.805288,
1578.318,64.187866,
1577.354,62.054312,
1576.390,60.795972,
1575.425,60.768016,
1574.461,62.0909,
1573.497,65.011956,
1572.533,67.346263,
1571.568,65.402355,
1570.604,60.028142,
1569.640,57.187794,
1568.676,60.114606,
1567.711,63.560947,
1566.747,62.570348,
1565.783,59.96075,
1564.819,58.096343,
1563.854,57.035153,
1562.890,58.190436,
1561.926,61.721988,
1560.962,65.60835,
1559.998,68.417792,
1559.033,70.274838,
1558.069,71.364846,
1557.105,72.094064,
1556.141,72.281699,
1555.176,71.917999,
1554.212,71.70406,
1553.248,71.966836,
1552.284,71.168623,
1551.319,67.722045,
1550.355,63.449778,
1549.391,61.439988,
1548.427,61.250533,
1547.463,60.403531,
1546.498,58.02132,
1545.534,55.377184,
1544.570,53.992062,
1543.606,54.143584,
1542.641,54.79355,
1541.677,54.729014,
1540.713,54.327948,
1539.749,54.142882,
1538.784,53.987007,
1537.820,53.893032,
1536.856,53.663784,
1535.892,52.113183,
1534.927,49.200256,
1533.963,47.119004,
1532.999,47.672002,
1532.035,49.25779,
1531.071,48.826405,
1530.106,47.183019,
1529.142,48.126872,
1528.178,51.514663,
1527.214,53.41687,
1526.249,53.259665,
1525.285,52.659164,
1524.321,52.326,
1523.357,52.324095,
1522.392,53.900034,
1521.428,58.545091,
1520.464,68.50324,
1519.500,85.432772,
1518.535,102.95332,
1517.571,107.5175,
1516.607,105.49014,
1515.643,101.76694,
1514.679,94.496586,
1513.714,84.087144,
1512.750,70.657711,
1511.786,59.36446,
1510.822,53.908712,
1509.857,52.228518,
1508.893,50.350638,
1507.929,47.616851,
1506.965,46.58844,
1506.000,48.877038,
1505.036,52.718168,
1504.072,54.015002,
1503.108,54.203274,
1502.144,52.723935,
1501.179,49.582931,
1500.215,47.81723,
1499.251,48.067723,
1498.287,50.112981,
1497.322,53.669255,
1496.358,57.591949,
1495.394,59.97304,
1494.430,60.1559,
1493.465,60.012909,
1492.501,61.439422,
1491.537,63.427094,
1490.573,64.625785,
1489.608,66.020478,
1488.644,68.300762,
1487.680,70.897846,
1486.716,72.59026,
1485.752,73.200832,
1484.787,73.017126,
1483.823,72.437114,
1482.859,72.639758,
1481.895,75.277692,
1480.930,80.059899,
1479.966,84.607481,
1479.002,87.659492,
1478.038,90.944103,
1477.073,95.834271,
1476.109,102.28696,
1475.145,109.08008,
1474.181,115.54315,
1473.217,121.88656,
1472.252,128.57592,
1471.288,136.08906,
1470.324,145.11404,
1469.360,156.38407,
1468.395,173.0686,
1467.431,195.41414,
1466.467,217.19396,
1465.503,235.04245,
1464.538,252.68476,
1463.574,273.80155,
1462.610,297.20186,
1461.646,319.42158,
1460.681,339.79044,
1459.717,360.40892,
1458.753,382.57882,
1457.789,406.43272,
1456.825,436.00061,
1455.860,469.45739,
1454.896,488.47636,
1453.932,494.78872,
1452.968,490.39933,
1452.003,476.67449,
1451.039,459.08578,
1450.075,443.418,
1449.111,430.58294,
1448.146,419.55064,
1447.182,411.36382,
1446.218,406.24006,
1445.254,409.10496,
1444.290,418.99408,
1443.325,423.1375,
1442.361,426.09964,
1441.397,441.77987,
1440.433,468.86865,
1439.468,502.61348,
1438.504,541.62996,
1437.540,585.12042,
1436.576,631.06181,
1435.611,675.77128,
1434.647,710.80617,
1433.683,723.68946,
1432.719,717.55537,
1431.754,692.05102,
1430.790,650.56209,
1429.826,599.90244,
1428.862,540.686,
1427.898,485.63646,
1426.933,438.33171,
1425.969,394.35817,
1425.005,354.90956,
1424.041,319.92591,
1423.076,289.16531,
1422.112,262.14874,
1421.148,241.838,
1420.184,229.35502,
1419.219,221.64063,
1418.255,216.29246,
1417.291,214.78012,
1416.327,219.74614,
1415.363,231.84868,
1414.398,250.67873,
1413.434,276.56704,
1412.470,304.84272,
1411.506,312.18494,
1410.541,306.26251,
1409.577,291.80364,
1408.613,269.29305,
1407.649,239.36339,
1406.684,202.2436,
1405.720,164.56468,
1404.756,136.90854,
1403.792,121.55404,
1402.827,111.2607,
1401.863,102.78446,
1400.899,97.481228,
1399.935,91.66507,
1398.971,87.29406,
1398.006,85.198393,
1397.042,85.263988,
1396.078,85.503932,
1395.114,85.28294,
1394.149,85.206417,
1393.185,85.813806,
1392.221,86.645978,
1391.257,86.516159,
1390.292,85.223804,
1389.328,83.807646,
1388.364,82.196952,
1387.400,80.491184,
1386.436,80.850183,
1385.471,83.039701,
1384.507,85.308752,
1383.543,87.011191,
1382.579,87.518652,
1381.614,85.950937,
1380.650,83.5146,
1379.686,82.979418,
1378.722,84.741205,
1377.757,87.795604,
1376.793,90.99677,
1375.829,93.812246,
1374.865,96.264488,
1373.900,98.810263,
1372.936,101.6985,
1371.972,104.78988,
1371.008,107.75126,
1370.044,110.55356,
1369.079,114.37748,
1368.115,122.9285,
1367.151,133.78136,
1366.187,138.15976,
1365.222,137.84995,
1364.258,137.58008,
1363.294,139.57038,
1362.330,141.75926,
1361.365,140.61762,
1360.401,135.5123,
1359.437,129.96992,
1358.473,127.32932,
1357.509,126.0083,
1356.544,124.321,
1355.580,122.17022,
1354.616,119.64892,
1353.652,116.82684,
1352.687,113.17841,
1351.723,108.86104,
1350.759,106.00026,
1349.795,107.03248,
1348.830,110.44984,
1347.866,112.60918,
1346.902,112.49,
1345.938,112.56076,
1344.973,113.84011,
1344.009,115.22928,
1343.045,115.25,
1342.081,113.8493,
1341.117,112.28924,
1340.152,111.48052,
1339.188,111.03008,
1338.224,110.36982,
1337.260,109.80004,
1336.295,109.84005,
1335.331,109.94996,
1334.367,110.12006,
1333.403,110.4705,
1332.438,111.2405,
1331.474,112.73934,
1330.510,114.9501,
1329.546,117.29092,
1328.582,119.04092,
1327.617,119.95946,
1326.653,119.84002,
1325.689,119.60056,
1324.725,121.04234,
1323.760,123.72123,
1322.796,126.95924,
1321.832,130.76098,
1320.868,134.70238,
1319.903,137.9605,
1318.939,141.07884,
1317.975,144.51039,
1317.011,148.03268,
1316.046,152.521,
1315.082,158.51694,
1314.118,164.61984,
1313.154,168.99144,
1312.190,172.14416,
1311.225,176.56713,
1310.261,183.49886,
1309.297,190.41128,
1308.333,194.4028,
1307.368,197.88319,
1306.404,204.96786,
1305.440,213.79134,
1304.476,221.09352,
1303.511,226.3812,
1302.547,232.70722,
1301.583,242.83058,
1300.619,255.80636,
1299.655,267.82968,
1298.690,277.38448,
1297.726,288.93892,
1296.762,306.97018,
1295.798,333.00886,
1294.833,377.37828,
1293.869,438.02602,
1292.905,520.3474,
1291.941,628.35122,
1290.976,738.37426,
1290.012,805.74522,
1289.048,846.90781,
1288.084,828.02345,
1287.119,750.4922,
1286.155,646.88239,
1285.191,526.68258,
1284.227,409.38904,
1283.263,320.8784,
1282.298,266.39505,
1281.334,229.96579,
1280.370,205.99644,
1279.406,195.05037,
1278.441,183.15984,
1277.477,175.7322,
1276.513,169.37924,
1275.549,165.33714,
1274.584,161.07894,
1273.620,155.85226,
1272.656,151.4599,
1271.692,149.43982,
1270.728,149.09932,
1269.763,148.43038,
1268.799,146.94014,
1267.835,146.24018,
1266.871,146.6703,
1265.906,147.00976,
1264.942,145.08044,
1263.978,140.58888,
1263.014,136.29924,
1262.049,135.28097,
1261.085,136.15968,
1260.121,135.43986,
1259.157,134.26856,
1258.192,131.89922,
1257.228,128.3118,
1256.264,125.24004,
1255.300,123.8798,
1254.336,123.43856,
1253.371,121.93096,
1252.407,118.35056,
1251.443,114.30924,
1250.479,112.00818,
1249.514,109.76918,
1248.550,107.16076,
1247.586,105.13972,
1246.622,103.6792,
1245.657,102.49009,
1244.693,101.72032,
1243.729,101.7,
1242.765,101.83912,
1241.801,100.21704,
1240.836,97.332634,
1239.872,97.09302,
1238.908,100.22128,
1237.944,103.42,
1236.979,103.43,
1236.015,100.53064,
1235.051,97.85791,
1234.087,97.51708,
1233.122,97.622786,
1232.158,95.724678,
1231.194,93.389848,
1230.230,92.196649,
1229.265,91.622348,
1228.301,91.74394,
1227.337,92.558992,
1226.373,93.304853,
1225.409,92.993959,
1224.444,91.907688,
1223.480,91.329086,
1222.516,91.610973,
1221.552,91.530172,
1220.587,90.521343,
1219.623,88.918458,
1218.659,87.426836,
1217.695,86.604056,
1216.730,86.685597,
1215.766,87.77254,
1214.802,89.49695,
1213.838,88.683544,
1212.874,86.010156,
1211.909,84.219005,
1210.945,83.868026,
1209.981,84.37635,
1209.017,85.23788,
1208.052,86.22431,
1207.088,86.864862,
1206.124,86.401526,
1205.160,84.643228,
1204.195,82.293911,
1203.231,80.56261,
1202.267,80.791194,
1201.303,82.262543,
1200.338,83.143188,
1199.374,82.447341,
1198.410,80.872008,
1197.446,79.323614,
1196.482,78.51697,
1195.517,78.48602,
1194.553,78.720966,
1193.589,78.64075,
1192.625,77.910304,
1191.660,77.067361,
1190.696,77.126984,
1189.732,78.453286,
1188.768,79.854442,
1187.803,80.496143,
1186.839,81.233692,
1185.875,81.665008,
1184.911,81.771837,
1183.947,81.475336,
1182.982,80.833356,
1182.018,80.306038,
1181.054,80.512278,
1180.090,81.184566,
1179.125,81.815562,
1178.161,82.020958,
1177.197,82.022044,
1176.233,82.185468,
1175.268,82.801483,
1174.304,83.989588,
1173.340,85.756338,
1172.376,88.217236,
1171.411,91.812742,
1170.447,96.304825,
1169.483,102.42,
1168.519,110.3151,
1167.555,120.86251,
1166.590,133.77197,
1165.626,144.80848,
1164.662,149.78014,
1163.698,150.17768,
1162.733,147.38724,
1161.769,141.5816,
1160.805,133.59784,
1159.841,123.222,
1158.876,111.67926,
1157.912,101.62414,
1156.948,94.117606,
1155.984,88.603447,
1155.019,85.80844,
1154.055,85.796006,
1153.091,87.492888,
1152.127,90.822245,
1151.163,91.406383,
1150.198,89.614233,
1149.234,87.736382,
1148.270,87.167103,
1147.306,87.534472,
1146.341,88.15222,
1145.377,88.91374,
1144.413,89.594048,
1143.449,89.936266,
1142.484,90.360361,
1141.520,91.376514,
1140.556,93.053012,
1139.592,95.193226,
1138.628,97.696495,
1137.663,100.25842,
1136.699,101.58982,
1135.735,102.68208,
1134.771,108.59841,
1133.806,118.65424,
1132.842,130.81672,
1131.878,143.88332,
1130.914,159.38544,
1129.949,181.48817,
1128.985,211.95759,
1128.021,251.71382,
1127.057,301.37017,
1126.092,355.13758,
1125.128,403.45368,
1124.164,443.29758,
1123.200,467.90908,
1122.236,465.72105,
1121.271,444.84425,
1120.307,407.0475,
1119.343,350.90564,
1118.379,300.67394,
1117.414,253.86342,
1116.450,212.7638,
1115.486,180.8166,
1114.522,157.86944,
1113.557,141.18169,
1112.593,129.88534,
1111.629,123.15994,
1110.665,118.34828,
1109.701,114.8651,
1108.736,109.86306,
1107.772,103.26084,
1106.808,97.716176,
1105.844,95.40947,
1104.879,94.778643,
1103.915,92.375636,
1102.951,89.394896,
1101.987,88.926731,
1101.022,91.384442,
1100.058,93.961964,
1099.094,94.080838,
1098.130,92.118399,
1097.165,91.059153,
1096.201,92.222372,
1095.237,93.359937,
1094.273,94.17818,
1093.309,94.597176,
1092.344,93.694612,
1091.380,91.815362,
1090.416,91.170864,
1089.452,94.141668,
1088.487,98.870742,
1087.523,103.1086,
1086.559,107.8308,
1085.595,113.09368,
1084.630,118.8503,
1083.666,124.27746,
1082.702,128.40004,
1081.738,130.9808,
1080.774,132.5814,
1079.809,134.00914,
1078.845,136.19974,
1077.881,138.84064,
1076.917,140.5805,
1075.952,141.15981,
1074.988,141.19998,
1074.024,140.98966,
1073.060,139.44902,
1072.095,138.06083,
1071.131,138.42986,
1070.167,138.76004,
1069.203,139.19046,
1068.238,139.99057,
1067.274,141.83902,
1066.310,145.6998,
1065.346,152.24536,
1064.382,164.58997,
1063.417,186.33539,
1062.453,216.1744,
1061.489,255.3841,
1060.525,302.91958,
1059.560,353.60009,
1058.596,401.99426,
1057.632,448.31294,
1056.668,466.75985,
1055.703,466.51798,
1054.739,444.99996,
1053.775,403.3489,
1052.811,352.2332,
1051.847,299.22798,
1050.882,246.68155,
1049.918,200.83532,
1048.954,167.90082,
1047.990,142.94427,
1047.025,124.49794,
1046.061,111.22336,
1045.097,100.24776,
1044.133,90.520971,
1043.168,83.487059,
1042.204,80.114318,
1041.240,81.175992,
1040.276,81.089908,
1039.311,80.931767,
1038.347,80.342312,
1037.383,79.033058,
1036.419,77.201212,
1035.455,75.407713,
1034.490,74.014928,
1033.526,72.086352,
1032.562,68.907178,
1031.598,66.187521,
1030.633,65.578737,
1029.669,66.352752,
1028.705,66.350644,
1027.741,64.179227,
1026.776,61.445433,
1025.812,59.93569,
1024.848,58.534984,
1023.884,57.96703,
1022.920,58.024058,
1021.955,58.081966,
1020.991,57.939016,
1020.027,57.944048,
1019.063,58.074846,
1018.098,57.895,
1017.134,56.305394,
1016.170,52.77806,
1015.206,48.795533,
1014.241,46.760407,
1013.277,47.626666,
1012.313,49.543008,
1011.349,49.630659,
1010.384,49.04572,
1009.420,49.842582,
1008.456,50.893958,
1007.492,49.439116,
1006.528,45.201758,
1005.563,40.637019,
1004.599,38.65235,
1003.635,38.898084,
1002.671,39.1707,
1001.706,38.791809,
1000.742,38.256168,
999.778,38.10003,
998.814,38.276754,
997.849,37.899906,
996.885,35.669008,
995.921,32.94904,
994.957,34.180678,
993.993,37.429997,
993.028,38.426412,
992.064,36.33222,
991.100,33.230372,
990.136,31.57126,
989.171,30.712939,
988.207,28.674496,
987.243,26.30481,
986.279,25.51794,
985.314,26.814666,
984.350,28.843228,
983.386,29.374766,
982.422,27.114359,
981.457,24.323678,
980.493,24.84473,
979.529,26.093958,
978.565,25.377998,
977.601,23.152862,
976.636,21.935798,
975.672,23.632708,
974.708,26.608876,
973.744,26.213085,
972.779,23.81056,
971.815,21.634672,
970.851,20.10081,
969.887,19.012414,
968.922,18.124002,
967.958,17.404322,
966.994,17.020038,
966.030,18.031146,
965.066,20.227468,
964.101,21.686148,
963.137,21.88998,
962.173,21.69112,
961.209,22.002085,
960.244,22.099544,
959.280,21.477148,
958.316,21.519002,
957.352,21.5247,
956.387,21.113639,
955.423,20.227332,
954.459,18.96185,
953.495,17.591728,
952.530,17.132916,
951.566,18.408346,
950.602,19.522968,
949.638,19.428696,
948.674,18.76259,
947.709,18.327284,
946.745,18.200022,
945.781,17.717956,
944.817,17.577023,
943.852,17.605637,
942.888,17.058166,
941.924,16.314922,
940.960,15.882056,
939.995,15.966199,
939.031,16.380817,
938.067,16.881016,
937.103,17.262058,
936.139,17.370844,
935.174,17.217089,
934.210,16.993022,
933.246,16.890016,
932.282,16.930948,
931.317,16.871499,
930.353,16.103178,
929.389,14.922878,
928.425,14.438238,
927.460,14.7606,
926.496,15.970552,
925.532,18.125274,
924.568,20.51377,
923.603,20.130108,
922.639,18.132014,
921.675,16.635034,
920.711,16.133077,
919.747,16.300272,
918.782,16.588814,
917.818,16.754974,
916.854,16.856158,
915.890,17.344668,
914.925,18.172266,
913.961,19.085728,
912.997,19.88311,
912.033,20.477327,
911.068,20.965223,
910.104,21.740662,
909.140,21.514958,
908.176,20.664956,
907.212,20.582987,
906.247,21.553444,
905.283,22.826886,
904.319,23.282732,
903.355,22.60189,
902.390,21.340187,
901.426,19.48842,
900.462,17.852168,
899.498,18.504468,
898.533,21.831981,
897.569,25.737576,
896.605,26.544834,
895.641,25.157024,
894.676,25.197347,
893.712,25.871662,
892.748,26.517988,
891.784,27.287562,
890.820,28.494,
889.855,29.545328,
888.891,29.202054,
887.927,28.522026,
886.963,28.601647,
885.998,29.397485,
885.034,30.622641,
884.070,32.021248,
883.106,33.313752,
882.141,32.945345,
881.177,31.526611,
880.213,32.307132,
879.249,34.759056,
878.285,36.723224,
877.320,36.942876,
876.356,36.70402,
875.392,37.287286,
874.428,38.001992,
873.463,37.99252,
872.499,37.286156,
871.535,36.294768,
870.571,35.410454,
869.606,34.678784,
868.642,33.827306,
867.678,32.906932,
866.714,32.361354,
865.749,32.942574,
864.785,34.51322,
863.821,36.09798,
862.857,36.470752,
861.893,35.946774,
860.928,35.71015,
859.964,35.865976,
859.000,35.03628,
858.036,32.87828,
857.071,30.778176,
856.107,31.338838,
855.143,35.057512,
854.179,37.664878,
853.214,37.486177,
852.250,35.93366,
851.286,34.38594,
850.322,33.353472,
849.358,32.380338,
848.393,31.736362,
847.429,31.396026,
846.465,31.106998,
845.501,31.10432,
844.536,31.46432,
843.572,32.11386,
842.608,32.869976,
841.644,32.782334,
840.679,31.896709,
839.715,30.826378,
838.751,29.66687,
837.787,28.663709,
836.822,28.190396,
835.858,28.489852,
834.894,28.451,
833.930,27.347424,
832.966,26.138561,
832.001,24.641942,
831.037,22.684284,
830.073,20.953176,
829.109,21.474625,
828.144,23.445987,
827.180,23.052112,
826.216,21.654858,
825.252,20.954372,
824.287,21.497362,
823.323,22.534564,
822.359,22.89297,
821.395,22.431744,
820.431,21.96374,
819.466,21.71214,
818.502,21.559012,
817.538,21.127564,
816.574,20.066778,
815.609,18.701915,
814.645,17.89117,
813.681,17.034894,
812.717,16.6482,
811.752,16.912201,
810.788,17.413826,
809.824,17.368968,
808.860,17.135728,
807.895,16.695864,
806.931,16.063308,
805.967,15.686,
805.003,15.732048,
804.039,15.830275,
803.074,15.080468,
802.110,12.85131,
801.146,10.690702,
800.182,9.8282853,
799.217,10.172479,
798.253,11.101742,
797.289,11.937094,
796.325,12.39203,
795.360,12.434935,
794.396,12.356032,
793.432,12.12599,
792.468,11.975108,
791.503,12.171235,
790.539,12.819642,
789.575,13.578948,
788.611,13.192304,
787.647,11.520151,
786.682,9.4670164,
785.718,7.9155187,
784.754,7.2204226,
783.790,6.9430433,
782.825,6.7378154,
781.861,6.7866832,
780.897,7.532594,
779.933,8.9066162,
778.968,9.5713468,
778.004,8.0710215,
777.040,5.081297,
776.076,4.216223,
775.112,4.0587664,
774.147,4.5384034,
773.183,5.8457248,
772.219,7.4189271,
771.255,7.7805347,
770.290,5.9051956,
769.326,4.3680173,
768.362,4.5449096,
767.398,5.5311335,
766.433,6.7270578,
765.469,8.0684513,
764.505,9.7384426,
763.541,10.305986,
762.576,10.280885,
761.612,10.036134,
760.648,9.3887404,
759.684,8.2561111,
758.720,6.859269,
757.755,5.6111544,
756.791,5.0317158,
755.827,4.8351297,
754.863,4.9399136,
753.898,5.3480648,
752.934,6.0388668,
751.970,6.889791,
751.006,7.5111784,
750.041,7.6352814,
749.077,7.1706209,
748.113,6.5264972,
747.149,6.207633,
746.185,6.4774053,
745.220,6.8919459,
744.256,6.6489313,
743.292,5.7983971,
742.328,4.6651315,
741.363,3.6313429,
740.399,3.1098388,
739.435,3.5052758,
738.471,4.7707936,
737.506,5.9004322,
736.542,6.4633728,
735.578,6.7328392,
734.614,7.220378,
733.649,8.2437425,
732.685,9.1351176,
731.721,7.8990707,
730.757,5.9894002,
729.793,5.7568031,
728.828,7.186429,
727.864,8.640017,
726.900,8.3896268,
725.936,8.4827061,
724.971,9.1367592,
724.007,10.13267,
723.043,11.338156,
722.079,12.369232,
721.114,12.734965,
720.150,12.982884,
719.186,14.480016,
718.222,15.572459,
717.258,14.485032,
716.293,11.465835,
715.329,8.4018777,
714.365,7.574121,
713.401,7.3553472,
712.436,7.0563729,
711.472,6.9983152,
710.508,7.0573818,
709.544,6.9756596,
708.579,6.6357223,
707.615,5.7500529,
706.651,4.8374948,
705.687,4.7781368,
704.722,5.7196147,
703.758,6.8485949,
702.794,6.6709092,
701.830,3.9406469,
700.866,1.0432442,
699.901,0.00070246222,
698.937,0.39489522,
697.973,1.8852935,
697.009,4.2382384,
696.044,6.8527287,
695.080,5.2532234,
694.116,2.0505561,
693.152,1.136394,
692.187,2.8416406,
691.223,5.2397861,
690.259,5.75537,
689.295,4.2328684,
688.331,3.1780135,
687.366,2.8880747,
686.402,2.7085212,
685.438,2.0727343,
684.474,1.0748245,
683.509,1.3395351,
682.545,4.0862981,
681.581,7.2380301,
680.617,8.2424748,
679.652,6.3837268,
678.688,3.2283403,
677.724,2.6608424,
676.760,4.2234364,
675.795,5.1555866,
674.831,6.0235395,
673.867,7.0454526,
672.903,7.8882404,
671.939,7.7511019,
670.974,6.2351134,
670.010,4.083196,
669.046,2.465631,
668.082,2.2364973,
667.117,3.3801268,
666.153,4.6221006,
665.189,4.2946732,
664.225,4.1300861,
663.260,5.0362096,
662.296,6.6933391,
661.332,8.0727976,
660.368,7.976456,
659.404,6.7124856,
658.439,6.7986486,
657.475,7.677901,
656.511,8.7516426,
655.547,9.6736935,
654.582,10.366662,
653.618,10.241032,
652.654,9.2250855,
651.690,8.7364911,
650.725,9.4202617,
649.761,10.850446,
648.797,11.79694,
647.833,11.171602,
646.868,10.487331,
645.904,10.461014,
644.940,10.844984,
643.976,11.174934,
643.012,11.026286,
642.047,10.25651,
641.083,10.64993,
640.119,11.67015,
639.155,12.158608,
638.190,11.662497,
637.226,10.560348,
636.262,10.10117,
635.298,11.116771,
634.333,12.298837,
633.369,12.987688,
632.405,13.127996,
631.441,12.999924,
630.477,12.853016,
629.512,12.86999,
628.548,13.321952,
627.584,14.137452,
626.620,15.337279,
625.655,16.821331,
624.691,18.117682,
623.727,16.062186,
622.763,12.661713,
621.798,10.883134,
620.834,11.48377,
619.870,13.431092,
618.906,14.330324,
617.941,13.177893,
616.977,11.895666,
616.013,11.05703,
615.049,10.970348,
614.085,11.748483,
613.120,13.337955,
612.156,14.792748,
611.192,16.632606,
610.228,18.578447,
609.263,19.139711,
608.299,17.473518,
607.335,14.854016,
606.371,14.951574,
605.406,15.824716,
604.442,16.040904,
603.478,15.349962,
602.514,14.313844,
601.550,14.015977,
600.585,14.98843,
599.621,16.186878,
598.657,17.172242,
597.693,17.806182,
596.728,18.016664,
595.764,17.631092,
594.800,16.88009,
593.836,17.244767,
592.871,18.295686,
591.907,18.522914,
590.943,16.768672,
589.979,13.71491,
589.014,15.25225,
588.050,19.005068,
587.086,21.430926,
586.122,21.474372,
585.158,20.089525,
584.193,19.58333,
583.229,20.585832,
582.265,21.665252,
581.301,22.464317,
580.336,22.85984,
579.372,22.853002,
578.408,22.450888,
577.444,21.821552,
576.479,21.146885,
575.515,20.40033,
574.551,19.761992,
573.587,19.561338,
572.623,20.20499,
571.658,21.18543,
570.694,22.2209,
569.730,22.705801,
568.766,22.191722,
567.801,20.726939,
566.837,19.860202,
565.873,20.875374,
564.909,22.373642,
563.944,23.24758,
562.980,23.173028,
562.016,22.733088,
561.052,23.508761,
560.087,24.783463,
559.123,24.96191,
558.159,24.57901,
557.195,24.765812,
556.231,26.532579,
555.266,28.205917,
554.302,26.274314,
553.338,22.643176,
552.374,20.080265,
551.409,20.409711,
550.445,23.262144,
549.481,26.461446,
548.517,28.881689,
547.552,29.912021,
546.588,29.037384,
545.624,26.421868,
544.660,23.567896,
543.696,23.373601,
542.731,23.96566,
541.767,24.157982,
540.803,23.958976,
539.839,23.897656,
538.874,23.506023,
537.910,21.865376,
536.946,21.606292,
535.982,22.749359,
535.017,24.586194,
534.053,26.179416,
533.089,27.569058,
532.125,28.068462,
531.160,27.176313,
530.196,25.099046,
529.232,22.487052,
528.268,20.344934,
527.304,20.203132,
526.339,22.449559,
525.375,25.322548,
524.411,26.997868,
523.447,26.590966,
522.482,25.317197,
521.518,24.855136,
520.554,24.691084,
519.590,25.131621,
518.625,26.053134,
517.661,27.014584,
516.697,27.405996,
515.733,27.34307,
514.769,27.47561,
513.804,28.07266,
512.840,28.945926,
511.876,29.5058,
510.912,29.004423,
509.947,28.350865,
508.983,27.81512,
508.019,27.083756,
507.055,26.1447,
506.090,25.742701,
505.126,26.605688,
504.162,26.635932,
503.198,26.084081,
502.233,26.217973,
501.269,26.300016,
500.305,26.382032,
499.341,26.464048,
498.377,26.546065,
497.412,26.627996,
496.448,26.710013,
495.484,26.79203,
494.520,26.874045,
493.555,26.955977,
492.591,27.037994,
491.627,27.12001,
490.663,27.202027,
489.698,27.283958,
488.734,27.365974,
487.770,27.447991,
486.806,27.530007,
485.842,27.612024,
484.877,27.693955,
483.913,27.775972,
482.949,27.857989,
481.985,27.940004,
481.020,28.021936,
480.056,28.103952,
479.092,28.185969,
478.128,28.267986,
477.163,28.349917,
476.199,28.431933,
475.235,28.513949,
474.271,28.595966,
473.306,28.677898,
472.342,28.759914,
471.378,28.841931,
470.414,28.923947,
469.450,29.005963,
468.485,29.087895,
467.521,29.169911,
466.557,29.251928,
465.593,29.333945,
464.628,29.415876,
463.664,29.497892,
462.700,29.579908,
461.736,29.661925,
460.771,29.743857,
459.807,29.825873,
458.843,29.90789,
457.879,29.989905,
456.915,30.071922,
455.950,30.153854,
454.986,30.23587,
454.022,30.317887,
453.058,30.399903,
452.093,30.481834,
451.129,30.563851,
450.165,30.645867,
449.201,30.727884,
448.236,30.809815,
447.272,30.891832,
446.308,30.973848,
445.344,31.055864,
444.379,31.137796,
443.415,31.219813,
442.451,31.301829,
441.487,31.383846,
440.523,31.465862,
439.558,31.547793,
438.594,31.62981,
437.630,31.711826,
436.666,31.793843,
435.701,31.875774,
434.737,31.957791,
433.773,32.039807,
432.809,32.121823,
431.844,32.203755,
430.880,31.849148,
429.916,31.26796,
428.952,30.677818,
427.988,30.347138,
427.023,30.480926,
426.059,31.161952,
425.095,32.126704,
424.131,33.825355,
423.166,36.444877,
422.202,39.024466,
421.238,40.33966,
420.274,39.111793,
419.309,37.527172,
418.345,38.353714,
417.381,40.619318,
416.417,42.902604,
415.452,43.871663,
414.488,44.108886,
413.524,43.941998,
412.560,42.955646,
411.596,42.227524,
410.631,42.767665,
409.667,44.60375,
408.703,45.810198,
407.739,46.37622,
406.774,46.641012,
405.810,46.811954,
404.846,46.916018,
403.882,47.00602,
402.917,47.034125,
401.953,47.268904,
400.989,48.436188,
400.025,50.990592,
399.060,53.844773,
398.096,52.400794,
397.132,49.091212,
396.168,47.254465,
395.204,48.363239,
394.239,50.838311,
393.275,51.069954,
392.311,50.059612,
391.347,48.687132,
390.382,47.555107,
389.418,46.981194,
388.454,46.879988,
387.490,46.796128,
386.525,47.000349,
385.561,47.802618,
384.597,49.26501,
383.633,50.729446,
382.669,51.636066,
381.704,52.728328,
380.740,53.432908,
379.776,53.270584,
378.812,52.097522,
377.847,51.528024,
376.883,51.240078,
375.919,51.031974,
374.955,50.915,
373.990,50.913625,
373.026,50.279258,
372.062,49.062018,
371.098,49.293505,
370.133,51.967212,
369.169,56.905318,
368.205,61.588724,
367.241,62.064502,
366.277,60.893326,
365.312,60.152641,
364.348,60.71089,
363.384,61.810676,
362.420,60.682747,
361.455,59.061295,
360.491,60.066664,
359.527,64.227822,
358.563,69.698283,
357.598,70.144335,
356.634,67.549224,
355.670,66.486024,
354.706,68.41623,
353.742,72.907496,
352.777,76.470829,
351.813,76.824956,
350.849,76.488108,
349.885,76.790226,
348.920,78.243715,
347.956,80.139502,
346.992,81.507226,
346.028,82.528308,
345.063,82.963768,
344.099,82.898026,
343.135,82.816194,
342.171,85.137961,
341.206,88.587145,
340.242,92.212051,
339.278,95.617818,
338.314,98.65576,
337.350,100.42066,
336.385,101.14999,
335.421,101.48994,
334.457,101.71006,
333.493,101.93004,
332.528,101.99017,
331.564,102.2899,
330.600,103.09018,
329.636,104.22078,
328.671,105.43993,
327.707,106.34958,
326.743,106.71,
325.779,106.65006,
324.815,106.77076,
323.850,107.54952,
322.886,109.2498,
321.922,110.14986,
320.958,109.73858,
319.993,108.06887,
319.029,105.44068,
318.065,102.44982,
317.101,101.70156,
316.136,103.89046,
315.172,106.26906,
314.208,106.33964,
313.244,102.2261,
312.279,95.438739,
311.315,90.31073,
310.351,86.602178,
309.387,84.250464,
308.423,83.019202,
307.458,82.151582,
306.494,80.187366,
305.530,77.493264,
304.566,75.024941,
303.601,73.67168,
302.637,73.882932,
301.673,73.472772,
300.709,72.056003,
299.744,70.511251,
298.780,69.661392,
297.816,69.974012,
296.852,70.469078,
295.888,70.620806,
294.923,70.425118,
293.959,69.712082,
292.995,68.095248,
292.031,66.060935,
291.066,64.814948,
290.102,64.050192,
289.138,63.669026,
288.174,63.778748,
287.209,64.822495,
286.245,64.742032,
285.281,63.349784,
284.317,61.070643,
283.352,58.727087,
282.388,56.661088,
281.424,54.769082,
280.460,53.59692,
279.496,53.41575,
278.531,54.225462,
277.567,54.94487,
276.603,54.931946,
275.639,54.753726,
274.674,54.405595,
273.710,53.548272,
272.746,50.885542,
271.782,48.124491,
270.817,47.341923,
269.853,48.319554,
268.889,50.008014,
267.925,50.51411,
266.961,50.726442,
265.996,50.166332,
265.032,48.663164,
264.068,46.630938,
263.104,46.466281,
262.139,49.12019,
261.175,50.847574,
260.211,49.809006,
259.247,45.621833,
258.282,41.236858,
257.318,41.15903,
256.354,42.929168,
255.390,44.614112,
254.425,44.805126,
253.461,43.34876,
252.497,41.054086,
251.533,38.631144,
250.569,36.717134,
249.604,35.787613,
248.640,36.102944,
247.676,37.563348,
246.712,38.690026,
245.747,38.722084,
244.783,37.308442,
243.819,34.698744,
242.855,33.209328,
241.890,33.709485,
240.926,34.970432,
239.962,35.324902,
238.998,32.414267,
238.034,29.071382,
237.069,29.451776,
236.105,32.25771,
235.141,34.779956,
234.177,32.035277,
233.212,26.576135,
232.248,25.321302,
231.284,27.306774,
230.320,30.49208,
229.355,31.976428,
228.391,32.089958,
227.427,30.973758,
226.463,28.668297,
225.498,25.782606,
224.534,24.219806,
223.570,26.166938,
222.606,29.122106,
221.642,31.568024,
220.677,32.661285,
219.713,32.871964,
218.749,34.020534,
217.785,35.720287,
216.820,36.078424,
215.856,33.842688,
214.892,29.441696,
213.928,27.72134,
212.963,26.723331,
211.999,26.491104,
211.035,27.371108,
210.071,30.11754,
209.107,31.146648,
208.142,29.805781,
207.178,27.446232,
206.214,25.771319,
205.250,26.598317,
204.285,28.11096,
203.321,28.857824,
202.357,29.165158,
201.393,29.8008,
200.428,32.257496,
199.464,34.80405,
198.500,34.572684,
197.536,31.719531,
196.571,27.571944,
195.607,25.494061,
194.643,24.482028,
193.679,24.293276,
192.715,24.896176,
191.750,26.14519,
190.786,27.012858,
189.822,26.484544,
188.858,25.060674,
187.893,23.411921,
186.929,22.28234,
185.965,21.867856,
185.001,21.072374,
184.036,20.133951,
183.072,19.295368,
182.108,18.779946,
181.144,17.550876,
180.180,15.425641,
179.215,13.097344,
178.251,11.386158,
177.287,11.30433,
176.323,12.147284,
175.358,12.472103,
174.394,12.793926,
173.430,13.117928,
172.466,12.833654,
171.501,11.009699,
170.537,9.2442497,
169.573,7.9325162,
168.609,7.2112015,
167.644,6.8810022,
166.680,7.6899907,
165.716,8.4161844,
164.752,7.4068181,
163.788,3.9873255,
162.823,0.0025638525,
161.859,0.62537063,
160.895,3.250984,
159.931,5.9690025,
158.966,7.3303714,
158.002,7.7989612,
157.038,8.122861,
156.074,7.9148889,
155.109,7.1541747,
154.145,5.9868068,
153.181,4.996363,
152.217,4.2558366,
151.253,3.7629664,
150.288,3.7300188,
149.324,4.4822342,
148.360,6.4319857,
147.396,8.1603853,
146.431,8.8243347,
145.467,8.4878758,
144.503,7.9979979,
143.539,9.9204579,
142.574,12.68811,
141.610,14.778242,
140.646,15.301864,
139.682,14.190527,
138.717,13.410307,
137.753,13.26807,
136.789,13.775992,
135.825,14.937956,
134.861,16.979495,
133.896,19.599329,
132.932,22.038626,
131.968,23.87231,
131.004,24.810979,
130.039,24.78524,
129.075,25.139896,
128.111,26.53041,
127.147,28.651425,
126.182,30.755076,
125.218,32.540234,
124.254,35.438186,
123.290,38.806864,
122.326,42.262368,
121.361,45.551137,
120.397,48.178784,
119.433,49.731978,
118.469,49.67541,
117.504,47.881616,
116.540,44.940646,
115.576,45.817222,
114.612,50.438028,
113.647,57.151432,
112.683,64.059532,
111.719,69.558652,
110.755,74.695609,
109.790,78.964789,
108.826,82.397302,
107.862,85.468968,
106.898,91.486486,
105.934,98.850997,
104.969,106.15538,
104.005,113.09898,
103.041,120.13168,
102.077,125.11354,
101.112,129.42114,
100.148,133.70878,
99.184,138.27088,
98.220,142.66266,
97.255,146.55008,
96.291,149.69866,
95.327,151.91008,
94.363,153.16046,
93.399,154.02232,
92.434,156.27874,
91.470,160.1297,
90.506,164.97194,
89.542,169.73288,
88.577,172.97086,
87.613,175.86938,
86.649,178.29056,
85.685,180.39168,
84.720,182.60934,
83.756,183.03984,
82.792,182.13012,
81.828,183.00307,
80.863,187.98226,
79.899,196.49584,
78.935,203.96996,
77.971,209.98214,
77.007,214.46301,
76.042,217.58804,
75.078,219.58972,
74.114,221.4406,
73.150,223.18132,
72.185,224.7803,
71.221,226.16962,
70.257,229.26084,
69.293,233.42313,
68.328,237.97061,
67.364,242.5181,
66.400,247.90028,
65.436,252.27156,
64.472,255.12126,
63.507,256.33932,
62.543,256.05002,
61.579,254.69052,
60.615,255.93308,
59.650,259.36267,
58.686,264.94884,
57.722,273.02336,
56.758,285.21898,
55.793,297.04077,
54.829,306.18684,
53.865,311.21022,
52.901,312.74916,
51.936,311.40919,
50.972,308.77128,
50.008,307.3,
