,Nylon 66 Spectrum,
Raman shift [1/cm],Counts/sec,
3409.936,6.6224852,
3408.972,8.429077,
3408.007,7.9914061,
3407.043,6.5445554,
3406.079,4.2298338,
3405.115,1.8923826,
3404.150,0,
3403.186,2.8175191,
3402.222,8.0116255,
3401.258,8.4292181,
3400.293,7.2275236,
3399.329,5.4825919,
3398.365,5.012953,
3397.401,7.9337439,
3396.437,10.398114,
3395.472,9.5262778,
3394.508,8.0566634,
3393.544,7.1883673,
3392.580,9.9742704,
3391.615,16.278923,
3390.651,16.170906,
3389.687,12.797385,
3388.723,10.196594,
3387.758,9.0791037,
3386.794,10.182951,
3385.830,12.51573,
3384.866,13.938303,
3383.901,15.145592,
3382.937,16.215602,
3381.973,16.361905,
3381.009,15.002277,
3380.045,16.079561,
3379.080,20.297203,
3378.116,23.070411,
3377.152,24.221793,
3376.188,25.77398,
3375.223,27.611104,
3374.259,28.16749,
3373.295,27.724781,
3372.331,29.577847,
3371.366,32.24832,
3370.402,34.845063,
3369.438,37.628721,
3368.474,40.18108,
3367.510,40.984682,
3366.545,38.905423,
3365.581,38.499091,
3364.617,41.990244,
3363.653,47.102783,
3362.688,53.100134,
3361.724,55.888722,
3360.760,55.694572,
3359.796,57.599619,
3358.831,60.005856,
3357.867,60.901259,
3356.903,60.718678,
3355.939,59.933246,
3354.974,60.795808,
3354.010,68.030003,
3353.046,74.71805,
3352.082,75.228467,
3351.118,75.858924,
3350.153,78.170953,
3349.189,81.340572,
3348.225,85.537268,
3347.261,89.073075,
3346.296,92.022426,
3345.332,95.419073,
3344.368,99.558342,
3343.404,104.70983,
3342.439,110.51535,
3341.475,115.54095,
3340.511,119.70911,
3339.547,121.9997,
3338.583,123.91964,
3337.618,126.35224,
3336.654,130.20695,
3335.690,136.43147,
3334.726,144.25737,
3333.761,152.83734,
3332.797,159.18279,
3331.833,162.75831,
3330.869,168.57322,
3329.904,176.82422,
3328.940,182.60394,
3327.976,187.8813,
3327.012,196.26439,
3326.047,206.10647,
3325.083,214.59679,
3324.119,222.54432,
3323.155,231.84883,
3322.191,242.40362,
3321.226,254.13333,
3320.262,263.93302,
3319.298,269.85728,
3318.334,281.15522,
3317.369,299.74571,
3316.405,312.57118,
3315.441,318.85667,
3314.477,325.40166,
3313.512,333.34823,
3312.548,339.97918,
3311.584,346.64868,
3310.620,365.20706,
3309.656,388.32208,
3308.691,398.8887,
3307.727,408.80796,
3306.763,424.93229,
3305.799,443.17118,
3304.834,461.17991,
3303.870,481.90519,
3302.906,507.03593,
3301.942,532.70702,
3300.977,557.79924,
3300.013,586.31097,
3299.049,618.84228,
3298.085,639.86023,
3297.120,650.88568,
3296.156,662.95734,
3295.192,675.32965,
3294.228,686.30292,
3293.264,691.23988,
3292.299,679.95362,
3291.335,658.19764,
3290.371,642.80342,
3289.407,625.38307,
3288.442,602.27883,
3287.478,580.41091,
3286.514,563.09786,
3285.550,546.57638,
3284.585,529.55453,
3283.621,510.34698,
3282.657,488.47772,
3281.693,467.31464,
3280.729,448.73908,
3279.764,432.78587,
3278.800,419.33683,
3277.836,405.00508,
3276.872,389.17387,
3275.907,368.58003,
3274.943,348.69668,
3273.979,336.71227,
3273.015,328.44052,
3272.050,317.62817,
3271.086,304.97354,
3270.122,290.7551,
3269.158,277.77204,
3268.193,268.46262,
3267.229,258.23719,
3266.265,245.41868,
3265.301,233.83725,
3264.337,224.42911,
3263.372,218.72936,
3262.408,215.62342,
3261.444,209.21767,
3260.480,198.79176,
3259.515,190.36102,
3258.551,184.05133,
3257.587,175.37476,
3256.623,166.53098,
3255.658,162.39774,
3254.694,158.39255,
3253.730,150.93781,
3252.766,143.36026,
3251.802,138.83351,
3250.837,135.62062,
3249.873,131.80417,
3248.909,126.85326,
3247.945,120.02772,
3246.980,113.7593,
3246.016,108.95445,
3245.052,103.87632,
3244.088,98.315172,
3243.123,94.933743,
3242.159,93.587882,
3241.195,92.657647,
3240.231,91.437008,
3239.266,89.096693,
3238.302,85.549103,
3237.338,80.995791,
3236.374,75.462018,
3235.410,69.402511,
3234.445,64.890783,
3233.481,65.068459,
3232.517,65.789836,
3231.553,64.012384,
3230.588,61.665134,
3229.624,60.42301,
3228.660,59.464089,
3227.696,58.338397,
3226.731,57.154279,
3225.767,56.342159,
3224.803,55.026232,
3223.839,52.984009,
3222.875,50.846549,
3221.910,48.722856,
3220.946,47.961372,
3219.982,47.940367,
3219.018,46.027688,
3218.053,42.433097,
3217.089,39.423273,
3216.125,36.970722,
3215.161,36.410166,
3214.196,36.557007,
3213.232,35.795547,
3212.268,34.813116,
3211.304,33.385858,
3210.339,32.769736,
3209.375,34.501952,
3208.411,35.525771,
3207.447,33.059989,
3206.483,31.43454,
3205.518,32.941145,
3204.554,33.725266,
3203.590,32.904065,
3202.626,32.755252,
3201.661,32.832586,
3200.697,31.335604,
3199.733,28.723241,
3198.769,25.33805,
3197.804,22.010134,
3196.840,21.439079,
3195.876,23.205231,
3194.912,24.829806,
3193.948,26.44176,
3192.983,23.294094,
3192.019,18.412003,
3191.055,15.03382,
3190.091,13.259347,
3189.126,14.216588,
3188.162,16.447242,
3187.198,18.206265,
3186.234,18.833062,
3185.269,17.120478,
3184.305,15.103769,
3183.341,14.127856,
3182.377,13.59562,
3181.412,13.57061,
3180.448,11.632392,
3179.484,7.5866546,
3178.520,7.2953361,
3177.556,10.500502,
3176.591,11.425126,
3175.627,9.7816101,
3174.663,10.92618,
3173.699,14.232494,
3172.734,13.992372,
3171.770,11.557596,
3170.806,9.0666435,
3169.842,6.5519852,
3168.877,5.2009255,
3167.913,5.5023071,
3166.949,8.9609398,
3165.985,12.586296,
3165.020,10.661066,
3164.056,7.0099579,
3163.092,6.3863396,
3162.128,5.1759537,
3161.164,1.8791422,
3160.199,0.047344939,
3159.235,1.2298712,
3158.271,2.8447703,
3157.307,4.262892,
3156.342,4.0346026,
3155.378,1.6851951,
3154.414,0.038766161,
3153.450,0.52107429,
3152.485,3.3181079,
3151.521,8.2653714,
3150.557,7.8272831,
3149.593,2.7085065,
3148.629,4.1144817,
3147.664,7.6677016,
3146.700,7.7925033,
3145.736,6.0125933,
3144.772,5.3359302,
3143.807,5.8593461,
3142.843,6.9315279,
3141.879,8.4142108,
3140.915,11.053854,
3139.950,13.334903,
3138.986,12.282968,
3138.022,10.431767,
3137.058,8.8293443,
3136.093,8.9239802,
3135.129,12.382009,
3134.165,15.963476,
3133.201,16.834829,
3132.237,18.058349,
3131.272,20.531884,
3130.308,20.884741,
3129.344,18.386573,
3128.380,19.404104,
3127.415,24.494572,
3126.451,24.489802,
3125.487,19.676657,
3124.523,20.036526,
3123.558,25.483846,
3122.594,29.16473,
3121.630,29.690241,
3120.666,28.93011,
3119.702,27.520051,
3118.737,30.313634,
3117.773,35.855765,
3116.809,35.014279,
3115.845,32.221476,
3114.880,31.239072,
3113.916,32.059607,
3112.952,35.616951,
3111.988,39.381338,
3111.023,38.610085,
3110.059,37.331991,
3109.095,42.295759,
3108.131,48.689268,
3107.166,53.691587,
3106.202,55.216146,
3105.238,50.774935,
3104.274,49.337507,
3103.310,54.596395,
3102.345,59.980282,
3101.381,62.165188,
3100.417,63.98958,
3099.453,65.936486,
3098.488,65.668113,
3097.524,62.635206,
3096.560,63.089382,
3095.596,67.606337,
3094.631,72.878483,
3093.667,78.84931,
3092.703,80.319394,
3091.739,78.736369,
3090.775,78.500632,
3089.810,79.485553,
3088.846,78.914656,
3087.882,77.457095,
3086.918,80.040727,
3085.953,85.290817,
3084.989,84.728109,
3084.025,82.193966,
3083.061,80.95006,
3082.096,81.160401,
3081.132,84.124549,
3080.168,85.911504,
3079.204,80.902019,
3078.239,74.732622,
3077.275,78.707878,
3076.311,84.090679,
3075.347,82.638275,
3074.383,83.55573,
3073.418,93.412666,
3072.454,99.164279,
3071.490,94.82556,
3070.526,90.200021,
3069.561,89.774198,
3068.597,91.152826,
3067.633,93.315641,
3066.669,93.731782,
3065.704,91.084584,
3064.740,90.704384,
3063.776,94.18659,
3062.812,96.315768,
3061.848,96.630157,
3060.883,96.477253,
3059.919,96.181192,
3058.955,96.586592,
3057.991,97.006587,
3057.026,94.563499,
3056.062,90.354008,
3055.098,91.247888,
3054.134,96.425017,
3053.169,93.869724,
3052.205,85.379418,
3051.241,86.855998,
3050.277,91.400339,
3049.312,91.449517,
3048.348,89.39318,
3047.384,88.651243,
3046.420,89.012485,
3045.456,89.394961,
3044.491,89.401803,
3043.527,87.74678,
3042.563,85.161535,
3041.599,83.288304,
3040.634,83.038212,
3039.670,86.335312,
3038.706,89.445747,
3037.742,89.733098,
3036.777,90.061416,
3035.813,93.025191,
3034.849,96.185705,
3033.885,96.654331,
3032.921,96.669246,
3031.956,97.650804,
3030.992,98.553613,
3030.028,98.721451,
3029.064,100.0805,
3028.099,103.28952,
3027.135,103.34544,
3026.171,99.033443,
3025.207,99.778101,
3024.242,107.95059,
3023.278,113.2609,
3022.314,111.38505,
3021.350,109.36231,
3020.385,109.41912,
3019.421,111.59755,
3018.457,116.13816,
3017.493,122.14647,
3016.529,128.84552,
3015.564,131.18533,
3014.600,130.22627,
3013.636,130.14201,
3012.672,131.65223,
3011.707,133.85943,
3010.743,136.92875,
3009.779,141.54678,
3008.815,147.27488,
3007.850,148.82421,
3006.886,149.11057,
3005.922,154.82607,
3004.958,162.44239,
3003.994,167.35144,
3003.029,170.30225,
3002.065,173.17371,
3001.101,176.59233,
3000.137,182.28415,
2999.172,190.08139,
2998.208,199.87568,
2997.244,210.86009,
2996.280,219.98292,
2995.315,228.31744,
2994.351,236.31504,
2993.387,243.72301,
2992.423,249.87397,
2991.458,255.87432,
2990.494,263.84158,
2989.530,275.19942,
2988.566,292.35425,
2987.602,309.4478,
2986.637,319.41577,
2985.673,328.70286,
2984.709,341.02539,
2983.745,355.35496,
2982.780,371.32342,
2981.816,389.38395,
2980.852,410.47375,
2979.888,433.63724,
2978.923,457.43639,
2977.959,482.20398,
2976.995,507.94872,
2976.031,533.91965,
2975.067,559.19807,
2974.102,588.94263,
2973.138,624.01317,
2972.174,661.33749,
2971.210,701.23786,
2970.245,744.04272,
2969.281,788.99766,
2968.317,834.7867,
2967.353,881.3014,
2966.388,932.41997,
2965.424,989.13517,
2964.460,1040.6477,
2963.496,1084.0548,
2962.531,1130.986,
2961.567,1181.5901,
2960.603,1221.3816,
2959.639,1250.6888,
2958.675,1280.0995,
2957.710,1311.7548,
2956.746,1343.3409,
2955.782,1374.7467,
2954.818,1408.7539,
2953.853,1447.4118,
2952.889,1488.9047,
2951.925,1533.6712,
2950.961,1588.4533,
2949.996,1647.0757,
2949.032,1701.0535,
2948.068,1755.097,
2947.104,1817.3014,
2946.140,1889.8953,
2945.175,1974.0095,
2944.211,2069.4499,
2943.247,2177.8109,
2942.283,2297.2139,
2941.318,2412.2595,
2940.354,2528.7916,
2939.390,2649.0501,
2938.426,2769.8203,
2937.461,2887.3053,
2936.497,3000.9688,
2935.533,3108.2783,
2934.569,3211.6486,
2933.604,3312.889,
2932.640,3406.8916,
2931.676,3481.4452,
2930.712,3543.0467,
2929.748,3607.4138,
2928.783,3665.5912,
2927.819,3709.0452,
2926.855,3748.3425,
2925.891,3795.8432,
2924.926,3834.1204,
2923.962,3836.2271,
2922.998,3810.219,
2922.034,3772.3124,
2921.069,3724.9512,
2920.105,3690.7954,
2919.141,3658.5967,
2918.177,3622.0269,
2917.213,3587.7652,
2916.248,3566.3225,
2915.284,3558.8921,
2914.320,3568.6773,
2913.356,3588.5093,
2912.391,3607.3306,
2911.427,3631.7067,
2910.463,3677.0729,
2909.499,3725.6344,
2908.534,3747.9079,
2907.570,3776.8507,
2906.606,3845.3446,
2905.642,3922.6277,
2904.677,3991.1147,
2903.713,4054.8229,
2902.749,4116.8341,
2901.785,4191.5554,
2900.821,4294.9103,
2899.856,4400.9668,
2898.892,4475.8378,
2897.928,4537.2385,
2896.964,4580.6154,
2895.999,4590.4104,
2895.035,4549.9993,
2894.071,4472.3197,
2893.107,4361.8393,
2892.142,4235.7755,
2891.178,4104.1135,
2890.214,3969.2961,
2889.250,3845.2793,
2888.286,3730.4365,
2887.321,3623.0559,
2886.357,3518.1231,
2885.393,3407.2821,
2884.429,3301.4919,
2883.464,3209.4785,
2882.500,3134.8434,
2881.536,3081.746,
2880.572,3044.9434,
2879.607,3020.8294,
2878.643,3007.0446,
2877.679,3001.1477,
2876.715,3006.7273,
2875.750,3026.7198,
2874.786,3058.5589,
2873.822,3098.0712,
2872.858,3127.6943,
2871.894,3132.8306,
2870.929,3129.3721,
2869.965,3124.0202,
2869.001,3116.3674,
2868.037,3107.6385,
2867.072,3094.4429,
2866.108,3071.7263,
2865.144,3040.2885,
2864.180,3002.0887,
2863.215,2969.2998,
2862.251,2951.8952,
2861.287,2929.3827,
2860.323,2893.7398,
2859.359,2855.3158,
2858.394,2817.9335,
2857.430,2789.5017,
2856.466,2775.4884,
2855.502,2771.0487,
2854.537,2773.0285,
2853.573,2772.4588,
2852.609,2755.1617,
2851.645,2726.0747,
2850.680,2684.1508,
2849.716,2624.9003,
2848.752,2546.3691,
2847.788,2447.9272,
2846.823,2327.5119,
2845.859,2188.1225,
2844.895,2033.6228,
2843.931,1869.4359,
2842.967,1701.8594,
2842.002,1529.4002,
2841.038,1352.8177,
2840.074,1180.8746,
2839.110,1025.4256,
2838.145,889.85946,
2837.181,778.96652,
2836.217,686.08603,
2835.253,608.72312,
2834.288,545.80725,
2833.324,495.45303,
2832.360,453.43819,
2831.396,414.10569,
2830.431,381.35279,
2829.467,355.74933,
2828.503,334.8948,
2827.539,316.1119,
2826.575,298.37316,
2825.610,281.05948,
2824.646,266.76968,
2823.682,256.66389,
2822.718,247.82617,
2821.753,237.9256,
2820.789,228.2909,
2819.825,219.14917,
2818.861,210.11382,
2817.896,201.35126,
2816.932,190.61221,
2815.968,175.38633,
2815.004,163.2109,
2814.040,159.15022,
2813.075,155.80486,
2812.111,148.79401,
2811.147,140.43438,
2810.183,132.36641,
2809.218,123.35484,
2808.254,113.32084,
2807.290,104.03675,
2806.326,96.198577,
2805.361,89.225594,
2804.397,83.911394,
2803.433,79.354518,
2802.469,75.398366,
2801.504,72.186217,
2800.540,68.995262,
2799.576,64.460674,
2798.612,57.68336,
2797.648,50.544902,
2796.683,45.05128,
2795.719,41.386866,
2794.755,42.388987,
2793.791,44.391214,
2792.826,41.924402,
2791.862,38.114175,
2790.898,34.053766,
2789.934,31.077424,
2788.969,31.571747,
2788.005,34.183884,
2787.041,36.452955,
2786.077,37.020933,
2785.113,33.26255,
2784.148,27.839811,
2783.184,29.577694,
2782.220,34.080316,
2781.256,37.207702,
2780.291,39.627912,
2779.327,38.362909,
2778.363,36.936453,
2777.399,40.164422,
2776.434,44.722867,
2775.470,45.141854,
2774.506,43.808835,
2773.542,46.427033,
2772.577,51.35809,
2771.613,54.094813,
2770.649,55.960127,
2769.685,61.42212,
2768.721,68.131245,
2767.756,71.523125,
2766.792,73.020045,
2765.828,73.374129,
2764.864,73.188296,
2763.899,73.631098,
2762.935,75.431795,
2761.971,80.720376,
2761.007,89.161225,
2760.042,95.587456,
2759.078,100.01721,
2758.114,100.83027,
2757.150,98.611571,
2756.186,102.14635,
2755.221,109.47362,
2754.257,116.64364,
2753.293,122.75089,
2752.329,126.88347,
2751.364,129.46347,
2750.400,133.55032,
2749.436,139.53832,
2748.472,145.68498,
2747.507,152.05843,
2746.543,160.91493,
2745.579,172.50602,
2744.615,180.12726,
2743.650,183.80619,
2742.686,186.24734,
2741.722,187.97158,
2740.758,190.23562,
2739.794,193.20458,
2738.829,193.98378,
2737.865,192.18535,
2736.901,192.58916,
2735.937,196.77449,
2734.972,200.89414,
2734.008,203.90357,
2733.044,201.30683,
2732.080,192.57843,
2731.115,186.4545,
2730.151,186.16223,
2729.187,186.28132,
2728.223,184.09221,
2727.259,182.23079,
2726.294,182.09807,
2725.330,181.74461,
2724.366,179.52454,
2723.402,178.8769,
2722.437,182.23598,
2721.473,185.23706,
2720.509,186.07739,
2719.545,186.40142,
2718.580,186.75591,
2717.616,184.8795,
2716.652,178.569,
2715.688,171.95738,
2714.723,171.75704,
2713.759,172.1923,
2712.795,166.4214,
2711.831,160.22697,
2710.867,161.16205,
2709.902,162.1887,
2708.938,156.48211,
2707.974,148.96596,
2707.010,144.80014,
2706.045,143.3916,
2705.081,143.33964,
2704.117,143.66987,
2703.153,141.54981,
2702.188,137.33663,
2701.224,136.16568,
2700.260,137.51837,
2699.296,136.0151,
2698.332,133.85138,
2697.367,132.51067,
2696.403,131.08855,
2695.439,130.2827,
2694.475,130.16375,
2693.510,128.90204,
2692.546,125.71829,
2691.582,121.00307,
2690.618,115.40092,
2689.653,112.35278,
2688.689,112.1188,
2687.725,109.5795,
2686.761,104.66104,
2685.796,104.91412,
2684.832,110.38024,
2683.868,110.56579,
2682.904,104.19255,
2681.940,96.675462,
2680.975,90.555113,
2680.011,88.955455,
2679.047,94.172157,
2678.083,97.19814,
2677.118,93.757662,
2676.154,89.892821,
2675.190,86.492038,
2674.226,82.594048,
2673.261,78.375105,
2672.297,76.17414,
2671.333,77.548508,
2670.369,79.528887,
2669.405,78.960881,
2668.440,77.195357,
2667.476,75.026663,
2666.512,72.978354,
2665.548,72.484132,
2664.583,72.636026,
2663.619,72.301766,
2662.655,71.834894,
2661.691,71.408375,
2660.726,71.102432,
2659.762,71.247633,
2658.798,71.508314,
2657.834,71.03291,
2656.869,70.276373,
2655.905,71.385489,
2654.941,73.769699,
2653.977,72.510605,
2653.013,68.978509,
2652.048,67.798682,
2651.084,67.388991,
2650.120,70.313658,
2649.156,74.311765,
2648.191,71.527783,
2647.227,63.840145,
2646.263,61.130777,
2645.299,64.669307,
2644.334,67.326336,
2643.370,67.898847,
2642.406,69.635359,
2641.442,72.866488,
2640.478,73.381399,
2639.513,70.688844,
2638.549,66.529928,
2637.585,61.089807,
2636.621,58.952805,
2635.656,62.006198,
2634.692,64.39514,
2633.728,63.355813,
2632.764,62.830402,
2631.799,64.642005,
2630.835,66.70321,
2629.871,67.608265,
2628.907,65.802238,
2627.942,59.815111,
2626.978,56.231428,
2626.014,59.474955,
2625.050,63.428496,
2624.086,63.297419,
2623.121,61.268927,
2622.157,59.944102,
2621.193,59.753456,
2620.229,62.468906,
2619.264,67.000427,
2618.300,69.090542,
2617.336,69.828751,
2616.372,68.40846,
2615.407,65.331681,
2614.443,63.189565,
2613.479,62.239595,
2612.515,63.253584,
2611.551,65.273333,
2610.586,65.53205,
2609.622,64.063815,
2608.658,64.4822,
2607.694,67.403224,
2606.729,68.834648,
2605.765,68.014355,
2604.801,69.004082,
2603.837,71.966603,
2602.872,74.081086,
2601.908,75.262601,
2600.944,76.110094,
2599.980,76.689268,
2599.015,76.141199,
2598.051,74.01998,
2597.087,71.347354,
2596.123,69.03131,
2595.159,67.988857,
2594.194,70.196403,
2593.230,72.806682,
2592.266,73.130242,
2591.302,72.007565,
2590.337,69.310174,
2589.373,65.947209,
2588.409,62.582495,
2587.445,59.982605,
2586.480,59.493786,
2585.516,59.90673,
2584.552,58.044188,
2583.588,54.554685,
2582.624,51.645876,
2581.659,48.986055,
2580.695,47.09961,
2579.731,45.964503,
2578.767,47.036276,
2577.802,49.15058,
2576.838,47.232215,
2575.874,41.843833,
2574.910,38.540133,
2573.945,38.818255,
2572.981,38.909853,
2572.017,37.582211,
2571.053,36.621651,
2570.088,36.364364,
2569.124,35.184743,
2568.160,32.596545,
2567.196,30.752891,
2566.232,30.334699,
2565.267,30.984179,
2564.303,32.507296,
2563.339,33.698278,
2562.375,33.605133,
2561.410,34.446361,
2560.446,39.43603,
2559.482,45.172083,
2558.518,43.456136,
2557.553,38.133645,
2556.589,32.787567,
2555.625,28.021522,
2554.661,30.310687,
2553.697,36.425975,
2552.732,41.971533,
2551.768,45.733748,
2550.804,45.412268,
2549.840,41.267008,
2548.875,37.218085,
2547.911,34.222925,
2546.947,32.110966,
2545.983,31.02557,
2545.018,30.402821,
2544.054,30.487152,
2543.090,30.72451,
2542.126,30.896097,
2541.161,33.059919,
2540.197,37.79376,
2539.233,38.758951,
2538.269,31.311691,
2537.305,24.121656,
2536.340,26.125983,
2535.376,30.204626,
2534.412,30.606366,
2533.448,30.097655,
2532.483,28.661408,
2531.519,27.013147,
2530.555,27.509417,
2529.591,27.698168,
2528.626,24.225444,
2527.662,19.438561,
2526.698,17.518756,
2525.734,18.517663,
2524.770,21.087516,
2523.805,24.157565,
2522.841,23.68484,
2521.877,19.747273,
2520.913,17.724206,
2519.948,17.79742,
2518.984,18.490521,
2518.020,19.487772,
2517.056,20.093373,
2516.091,20.288036,
2515.127,19.347055,
2514.163,16.793525,
2513.199,15.849833,
2512.234,19.375376,
2511.270,23.358389,
2510.306,23.896139,
2509.342,22.846976,
2508.378,20.609091,
2507.413,18.317642,
2506.449,17.759006,
2505.485,17.592215,
2504.521,16.623178,
2503.556,15.397549,
2502.592,15.240938,
2501.628,15.914033,
2500.664,15.930341,
2499.699,15.32907,
2498.735,16.037374,
2497.771,18.048998,
2496.807,16.834059,
2495.842,12.069609,
2494.878,9.6612257,
2493.914,9.693606,
2492.950,8.6884911,
2491.986,5.8864372,
2491.021,4.6020103,
2490.057,6.8087916,
2489.093,10.207467,
2488.129,12.784171,
2487.164,14.452085,
2486.200,13.212284,
2485.236,10.263938,
2484.272,6.1427411,
2483.307,2.5314075,
2482.343,5.1149712,
2481.379,9.81167,
2480.415,12.269355,
2479.451,13.148329,
2478.486,13.42159,
2477.522,13.517801,
2476.558,14.494187,
2475.594,16.231902,
2474.629,16.11361,
2473.665,13.895172,
2472.701,14.853834,
2471.737,19.95649,
2470.772,21.083364,
2469.808,17.153061,
2468.844,15.015971,
2467.880,16.584545,
2466.915,18.115081,
2465.951,17.500989,
2464.987,15.311799,
2464.023,11.28882,
2463.059,7.3552943,
2462.094,9.029581,
2461.130,13.640879,
2460.166,16.782158,
2459.202,19.301123,
2458.237,14.028486,
2457.273,5.5865611,
2456.309,4.6598712,
2455.345,8.8407497,
2454.380,11.085153,
2453.416,10.515055,
2452.452,10.003112,
2451.488,10.373785,
2450.524,11.618628,
2449.559,14.059126,
2448.595,16.954311,
2447.631,19.712338,
2446.667,20.57559,
2445.702,18.219163,
2444.738,16.220012,
2443.774,16.931066,
2442.810,17.32176,
2441.845,14.341652,
2440.881,11.698018,
2439.917,15.651602,
2438.953,23.203818,
2437.988,25.955058,
2437.024,25.382469,
2436.060,27.519354,
2435.096,31.530995,
2434.132,32.726668,
2433.167,31.979227,
2432.203,30.14238,
2431.239,27.226187,
2430.275,25.493638,
2429.310,25.629741,
2428.346,27.24265,
2427.382,30.235054,
2426.418,32.105824,
2425.453,29.832747,
2424.489,26.176078,
2423.525,23.180295,
2422.561,21.050237,
2421.597,22.20382,
2420.632,23.029523,
2419.668,18.606983,
2418.704,12.681465,
2417.740,11.187881,
2416.775,12.981357,
2415.811,13.09036,
2414.847,11.28076,
2413.883,12.139959,
2412.918,16.606873,
2411.954,20.078962,
2410.990,21.2011,
2410.026,20.573092,
2409.061,17.95109,
2408.097,17.558628,
2407.133,20.982329,
2406.169,22.417797,
2405.205,18.553315,
2404.240,13.578675,
2403.276,11.81761,
2402.312,12.214993,
2401.348,13.451779,
2400.383,15.226701,
2399.419,16.296349,
2398.455,16.754424,
2397.491,15.764795,
2396.526,13.92331,
2395.562,13.688857,
2394.598,14.625008,
2393.634,11.934647,
2392.670,5.1495587,
2391.705,0.17330842,
2390.741,0,
2389.777,1.8438264,
2388.813,4.3731997,
2387.848,6.8030609,
2386.884,6.8170045,
2385.920,6.2365145,
2384.956,6.5928407,
2383.991,7.4363253,
2383.027,9.2332278,
2382.063,10.642484,
2381.099,9.676398,
2380.134,7.1837497,
2379.170,4.6117069,
2378.206,2.687125,
2377.242,2.9806098,
2376.278,5.9188207,
2375.313,8.5598639,
2374.349,9.7163855,
2373.385,10.182966,
2372.421,9.7116553,
2371.456,7.5695929,
2370.492,3.7243079,
2369.528,1.64289,
2368.564,3.5062476,
2367.599,6.8464608,
2366.635,9.2144082,
2365.671,10.351301,
2364.707,9.464805,
2363.743,6.9495981,
2362.778,5.2366375,
2361.814,4.5434032,
2360.850,5.4453838,
2359.886,7.9043468,
2358.921,11.328984,
2357.957,15.404109,
2356.993,15.566978,
2356.029,11.497279,
2355.064,8.9312421,
2354.100,10.411738,
2353.136,10.656785,
2352.172,5.3117933,
2351.207,0.2195359,
2350.243,4.4215568,
2349.279,11.900238,
2348.315,12.745912,
2347.351,10.696712,
2346.386,6.5444368,
2345.422,1.1240462,
2344.458,0.22704383,
2343.494,2.8581016,
2342.529,5.8842151,
2341.565,8.5846941,
2340.601,11.010124,
2339.637,12.434138,
2338.672,12.149607,
2337.708,9.3247934,
2336.744,6.4949989,
2335.780,6.6451849,
2334.816,7.5707126,
2333.851,8.191504,
2332.887,9.7558014,
2331.923,13.236602,
2330.959,16.209152,
2329.994,13.853479,
2329.030,8.8682151,
2328.066,10.58969,
2327.102,19.18055,
2326.137,22.553246,
2325.173,16.987758,
2324.209,12.642631,
2323.245,13.278559,
2322.280,13.593589,
2321.316,11.865992,
2320.352,10.655533,
2319.388,11.039655,
2318.424,12.018894,
2317.459,12.812243,
2316.495,12.587625,
2315.531,10.486541,
2314.567,8.1198814,
2313.602,8.6607901,
2312.638,10.984853,
2311.674,10.15706,
2310.710,6.2331741,
2309.745,6.2555279,
2308.781,11.243849,
2307.817,13.659953,
2306.853,11.292219,
2305.889,9.3139379,
2304.924,10.588147,
2303.960,12.401224,
2302.996,12.291888,
2302.032,11.080258,
2301.067,9.31394,
2300.103,7.3495752,
2299.139,8.6641654,
2298.175,12.65234,
2297.210,12.548522,
2296.246,9.4649674,
2295.282,8.4043136,
2294.318,8.5590893,
2293.353,7.2375468,
2292.389,4.2678598,
2291.425,3.7032021,
2290.461,7.9578312,
2289.497,11.902011,
2288.532,9.4878418,
2287.568,5.4028714,
2286.604,6.88587,
2285.640,9.9166712,
2284.675,7.5463982,
2283.711,3.180378,
2282.747,4.9535548,
2281.783,9.8824447,
2280.818,11.950885,
2279.854,11.161025,
2278.890,10.279319,
2277.926,10.157574,
2276.962,9.5722062,
2275.997,7.8551975,
2275.033,6.3008841,
2274.069,6.7705454,
2273.105,7.9257536,
2272.140,7.7779344,
2271.176,7.4485723,
2270.212,9.26213,
2269.248,11.709037,
2268.283,11.20531,
2267.319,8.3422563,
2266.355,5.111234,
2265.391,2.450524,
2264.426,2.7067579,
2263.462,7.4318878,
2262.498,12.347887,
2261.534,13.748212,
2260.570,13.010891,
2259.605,9.1400251,
2258.641,5.3132021,
2257.677,7.7346211,
2256.713,11.746128,
2255.748,12.303045,
2254.784,10.315333,
2253.820,6.8395356,
2252.856,3.1285815,
2251.891,2.9065925,
2250.927,7.1023769,
2249.963,10.381609,
2248.999,10.034131,
2248.035,9.7263998,
2247.070,11.328776,
2246.106,13.840429,
2245.142,17.029524,
2244.178,19.017594,
2243.213,17.385057,
2242.249,14.847053,
2241.285,14.922232,
2240.321,16.279149,
2239.356,15.295051,
2238.392,12.172524,
2237.428,10.739158,
2236.464,12.041046,
2235.499,12.911098,
2234.535,12.018357,
2233.571,10.914727,
2232.607,10.088881,
2231.643,9.1779266,
2230.678,8.1170702,
2229.714,7.4633917,
2228.750,8.1695276,
2227.786,9.9193158,
2226.821,11.546057,
2225.857,12.281392,
2224.893,11.397587,
2223.929,9.3022577,
2222.964,9.2988721,
2222.000,12.580545,
2221.036,15.858263,
2220.072,17.889594,
2219.108,18.164187,
2218.143,15.764415,
2217.179,13.073822,
2216.215,12.131618,
2215.251,13.531553,
2214.286,18.30805,
2213.322,24.308278,
2212.358,25.447178,
2211.394,21.439153,
2210.429,19.384547,
2209.465,20.781942,
2208.501,20.288421,
2207.537,16.732007,
2206.572,15.802157,
2205.608,19.667179,
2204.644,23.488403,
2203.680,24.053572,
2202.716,23.343057,
2201.751,24.079077,
2200.787,25.182869,
2199.823,23.39462,
2198.859,19.023558,
2197.894,16.091657,
2196.930,15.704092,
2195.966,17.31677,
2195.002,20.977984,
2194.037,23.950477,
2193.073,24.922238,
2192.109,24.883551,
2191.145,24.314296,
2190.180,24.059055,
2189.216,24.901763,
2188.252,26.361218,
2187.288,27.366426,
2186.324,27.869536,
2185.359,28.65033,
2184.395,29.54919,
2183.431,28.227543,
2182.467,24.051061,
2181.502,22.247871,
2180.538,24.977102,
2179.574,26.356189,
2178.610,22.956415,
2177.645,18.929739,
2176.681,18.539049,
2175.717,19.494989,
2174.753,16.938381,
2173.789,11.941587,
2172.824,10.646405,
2171.860,13.89092,
2170.896,16.10438,
2169.932,15.498943,
2168.967,16.929933,
2168.003,22.486167,
2167.039,25.13781,
2166.075,20.663672,
2165.110,15.107064,
2164.146,13.42321,
2163.182,14.501123,
2162.218,16.615511,
2161.253,19.190104,
2160.289,20.752197,
2159.325,20.796125,
2158.361,20.482584,
2157.397,19.791259,
2156.432,16.752082,
2155.468,10.348696,
2154.504,5.3277815,
2153.540,5.4339172,
2152.575,8.567397,
2151.611,13.428464,
2150.647,17.905645,
2149.683,18.387856,
2148.718,15.820749,
2147.754,15.595781,
2146.790,18.927455,
2145.826,21.168539,
2144.862,20.074857,
2143.897,18.229858,
2142.933,17.145795,
2141.969,17.069253,
2141.005,18.942271,
2140.040,20.728033,
2139.076,19.745288,
2138.112,17.505779,
2137.148,17.098203,
2136.183,18.183645,
2135.219,17.475092,
2134.255,14.186755,
2133.291,11.783427,
2132.326,12.488936,
2131.362,14.236243,
2130.398,15.866851,
2129.434,16.435544,
2128.470,12.674257,
2127.505,9.0130679,
2126.541,13.727123,
2125.577,22.06691,
2124.613,21.566609,
2123.648,12.223779,
2122.684,5.8341233,
2121.720,7.4766938,
2120.756,11.575026,
2119.791,16.248895,
2118.827,20.190245,
2117.863,17.488138,
2116.899,11.999068,
2115.935,10.383777,
2114.970,10.1408,
2114.006,12.062667,
2113.042,15.624134,
2112.078,14.952691,
2111.113,9.5219219,
2110.149,6.5874904,
2109.185,9.6747385,
2108.221,13.306274,
2107.256,13.855875,
2106.292,14.414169,
2105.328,16.958692,
2104.364,20.055706,
2103.399,19.831528,
2102.435,17.235086,
2101.471,14.864179,
2100.507,12.671056,
2099.543,9.5677282,
2098.578,5.577299,
2097.614,4.6657272,
2096.650,8.9525444,
2095.686,13.19527,
2094.721,11.316754,
2093.757,7.1506418,
2092.793,6.5324783,
2091.829,7.491284,
2090.864,6.5514207,
2089.900,4.6933932,
2088.936,5.0759907,
2087.972,7.0374455,
2087.008,8.1630119,
2086.043,8.2512247,
2085.079,8.3435878,
2084.115,8.6384412,
2083.151,8.2977478,
2082.186,6.941771,
2081.222,5.8334019,
2080.258,7.5626303,
2079.294,11.537318,
2078.329,13.28139,
2077.365,12.416722,
2076.401,13.118069,
2075.437,15.622151,
2074.472,16.720423,
2073.508,15.535588,
2072.544,12.954368,
2071.580,9.4130394,
2070.616,5.8463692,
2069.651,3.7835078,
2068.687,3.3970136,
2067.723,4.4842009,
2066.759,6.9020037,
2065.794,8.667902,
2064.830,8.713146,
2063.866,7.7192299,
2062.902,6.0079798,
2061.937,4.6502452,
2060.973,4.5971007,
2060.009,5.3845811,
2059.045,6.548038,
2058.081,8.006026,
2057.116,9.8945318,
2056.152,11.671954,
2055.188,11.313291,
2054.224,8.0877346,
2053.259,6.0327832,
2052.295,8.2632324,
2051.331,11.534502,
2050.367,13.446982,
2049.402,14.170693,
2048.438,12.225947,
2047.474,9.4874018,
2046.510,8.7991497,
2045.545,9.6445402,
2044.581,9.890126,
2043.617,8.8619814,
2042.653,7.9073231,
2041.689,8.3476842,
2040.724,9.7467857,
2039.760,11.261659,
2038.796,12.586004,
2037.832,11.254783,
2036.867,8.2971954,
2035.903,7.8803789,
2034.939,8.5778202,
2033.975,6.6826834,
2033.010,2.3748026,
2032.046,0.25998275,
2031.082,2.4059177,
2030.118,5.4890593,
2029.154,6.3454435,
2028.189,6.5847374,
2027.225,8.5367758,
2026.261,11.206783,
2025.297,11.278059,
2024.332,9.4262401,
2023.368,8.8074776,
2022.404,9.172504,
2021.440,10.394367,
2020.475,12.491864,
2019.511,13.59483,
2018.547,12.389886,
2017.583,10.231914,
2016.618,8.9140793,
2015.654,8.7223675,
2014.690,10.047892,
2013.726,12.525419,
2012.762,13.719449,
2011.797,12.967386,
2010.833,12.083486,
2009.869,11.78279,
2008.905,11.823061,
2007.940,12.129689,
2006.976,12.234315,
2006.012,11.782057,
2005.048,11.434583,
2004.083,12.722022,
2003.119,15.569617,
2002.155,16.902221,
2001.191,14.608898,
2000.227,11.861034,
1999.262,11.858336,
1998.298,12.140941,
1997.334,9.8007426,
1996.370,6.9662574,
1995.405,7.401694,
1994.441,9.4144257,
1993.477,9.0438076,
1992.513,5.9838831,
1991.548,3.2049156,
1990.584,2.4633011,
1989.620,3.4077223,
1988.656,6.1570264,
1987.691,9.3227364,
1986.727,9.6024113,
1985.763,8.3622132,
1984.799,9.3451108,
1983.835,12.040167,
1982.870,13.96076,
1981.906,15.072222,
1980.942,15.041545,
1979.978,13.750566,
1979.013,11.592155,
1978.049,8.9340856,
1977.085,7.019864,
1976.121,7.6575467,
1975.156,9.8714991,
1974.192,10.432717,
1973.228,9.25873,
1972.264,9.7130631,
1971.300,12.785658,
1970.335,14.201954,
1969.371,11.418836,
1968.407,8.8949954,
1967.443,10.540686,
1966.478,13.172119,
1965.514,11.655651,
1964.550,7.178832,
1963.586,6.0950302,
1962.621,10.119578,
1961.657,13.128843,
1960.693,11.127561,
1959.729,8.4125583,
1958.764,8.3995087,
1957.800,9.0352384,
1956.836,8.6230676,
1955.872,7.870223,
1954.908,8.1586871,
1953.943,8.9982741,
1952.979,8.3736033,
1952.015,6.3409248,
1951.051,6.2152776,
1950.086,9.8874818,
1949.122,13.854901,
1948.158,13.772027,
1947.194,11.637591,
1946.229,11.421563,
1945.265,12.380486,
1944.301,11.801713,
1943.337,10.007121,
1942.373,8.5743444,
1941.408,7.5795565,
1940.444,8.5644561,
1939.480,12.441543,
1938.516,16.620925,
1937.551,18.360464,
1936.587,18.119581,
1935.623,17.510878,
1934.659,16.334547,
1933.694,12.760364,
1932.730,6.276807,
1931.766,1.9585815,
1930.802,5.608569,
1929.837,11.079553,
1928.873,10.142479,
1927.909,7.5404162,
1926.945,8.4384993,
1925.981,11.364854,
1925.016,11.717576,
1924.052,8.8849949,
1923.088,7.3596894,
1922.124,9.9139737,
1921.159,11.966842,
1920.195,8.8042318,
1919.231,4.2912799,
1918.267,4.7589431,
1917.302,8.270747,
1916.338,10.933772,
1915.374,12.935517,
1914.410,14.23692,
1913.446,14.960736,
1912.481,14.057501,
1911.517,11.013445,
1910.553,8.4351612,
1909.589,9.3982834,
1908.624,12.534794,
1907.660,13.497331,
1906.696,11.761429,
1905.732,11.451846,
1904.767,13.984012,
1903.803,14.418277,
1902.839,9.3509788,
1901.875,4.5439348,
1900.910,6.1048111,
1899.946,9.9571912,
1898.982,10.865431,
1898.018,8.8672735,
1897.054,5.3514407,
1896.089,1.0654909,
1895.125,0,
1894.161,6.743939,
1893.197,14.929089,
1892.232,14.472198,
1891.268,10.940796,
1890.304,11.301386,
1889.340,13.452161,
1888.375,13.248884,
1887.411,11.408253,
1886.447,11.038276,
1885.483,12.560047,
1884.519,13.818244,
1883.554,13.597193,
1882.590,12.373066,
1881.626,10.50724,
1880.662,8.5609938,
1879.697,8.5371596,
1878.733,10.762447,
1877.769,11.858681,
1876.805,10.136702,
1875.840,8.5562764,
1874.876,9.020577,
1873.912,10.351577,
1872.948,12.514022,
1871.983,14.621878,
1871.019,13.634079,
1870.055,9.8698147,
1869.091,7.780258,
1868.127,9.7364531,
1867.162,13.070969,
1866.198,15.937662,
1865.234,17.790976,
1864.270,14.301371,
1863.305,7.9994114,
1862.341,7.6410557,
1861.377,11.26273,
1860.413,10.68577,
1859.448,6.0419169,
1858.484,4.2728192,
1857.520,8.2374614,
1856.556,12.951469,
1855.591,13.062108,
1854.627,9.3706954,
1853.663,5.5544298,
1852.699,2.9644336,
1851.735,2.50349,
1850.770,5.666228,
1849.806,10.323009,
1848.842,13.6919,
1847.878,15.775243,
1846.913,13.615032,
1845.949,9.0003779,
1844.985,7.7208308,
1844.021,9.3772214,
1843.056,10.902997,
1842.092,11.542786,
1841.128,11.959821,
1840.164,12.051074,
1839.200,11.09101,
1838.235,7.5098026,
1837.271,2.9511055,
1836.307,3.5430426,
1835.343,8.5351265,
1834.378,12.640248,
1833.414,15.512898,
1832.450,16.302052,
1831.486,13.910688,
1830.521,10.002528,
1829.557,6.3337723,
1828.593,4.1091079,
1827.629,5.580196,
1826.664,10.84142,
1825.700,15.204647,
1824.736,15.016555,
1823.772,12.717476,
1822.808,9.6470116,
1821.843,6.2497886,
1820.879,6.9375269,
1819.915,9.7192104,
1818.951,8.8156888,
1817.986,6.0356534,
1817.022,5.172708,
1816.058,6.7281709,
1815.094,9.3153719,
1814.129,12.081528,
1813.165,13.737772,
1812.201,12.470188,
1811.237,9.363346,
1810.273,7.7534767,
1809.308,8.4299844,
1808.344,11.387449,
1807.380,17.136564,
1806.416,20.766246,
1805.451,16.582353,
1804.487,10.384593,
1803.523,9.3195481,
1802.559,11.274083,
1801.594,11.90689,
1800.630,10.550975,
1799.666,8.8845143,
1798.702,7.5869498,
1797.737,7.3729302,
1796.773,10.159301,
1795.809,14.062225,
1794.845,13.90133,
1793.881,11.149518,
1792.916,10.176465,
1791.952,10.3539,
1790.988,10.670496,
1790.024,11.445197,
1789.059,12.437671,
1788.095,13.059296,
1787.131,12.82848,
1786.167,11.23653,
1785.202,9.1485359,
1784.238,9.6860787,
1783.274,14.419715,
1782.310,18.672688,
1781.346,17.313697,
1780.381,14.069649,
1779.417,13.084193,
1778.453,12.42198,
1777.489,12.050978,
1776.524,12.063179,
1775.560,11.022939,
1774.596,8.972347,
1773.632,8.0365989,
1772.667,9.2630577,
1771.703,11.294985,
1770.739,12.769149,
1769.775,14.110159,
1768.810,15.819723,
1767.846,17.252139,
1766.882,16.728256,
1765.918,13.548123,
1764.954,10.540988,
1763.989,11.04318,
1763.025,12.509873,
1762.061,10.549613,
1761.097,6.4301246,
1760.132,5.6451089,
1759.168,9.0199075,
1758.204,11.259843,
1757.240,9.8562724,
1756.275,8.8756513,
1755.311,11.116173,
1754.347,14.336675,
1753.383,15.066551,
1752.419,13.978996,
1751.454,14.665514,
1750.490,17.643194,
1749.526,20.336449,
1748.562,21.446453,
1747.597,20.503429,
1746.633,16.823101,
1745.669,12.36079,
1744.705,11.026312,
1743.740,13.550378,
1742.776,16.22337,
1741.812,16.361597,
1740.848,15.258368,
1739.883,13.788928,
1738.919,12.46319,
1737.955,12.63501,
1736.991,13.495649,
1736.027,12.799012,
1735.062,10.818684,
1734.098,11.17273,
1733.134,14.953877,
1732.170,17.843617,
1731.205,16.110945,
1730.241,12.304396,
1729.277,11.905366,
1728.313,14.805849,
1727.348,13.979085,
1726.384,5.9863543,
1725.420,0.22047956,
1724.456,8.4994608,
1723.492,22.085289,
1722.527,24.869848,
1721.563,22.942199,
1720.599,19.623975,
1719.635,15.033045,
1718.670,12.834743,
1717.706,13.564341,
1716.742,14.639963,
1715.778,14.300886,
1714.813,13.782172,
1713.849,15.192677,
1712.885,18.282313,
1711.921,20.592897,
1710.956,20.916176,
1709.992,19.912013,
1709.028,17.573037,
1708.064,15.010036,
1707.100,15.255759,
1706.135,16.954906,
1705.171,19.521037,
1704.207,23.379599,
1703.243,24.740799,
1702.278,21.800972,
1701.314,18.588734,
1700.350,18.729849,
1699.386,20.241629,
1698.421,20.462881,
1697.457,19.999516,
1696.493,20.971194,
1695.529,23.62631,
1694.565,25.982135,
1693.600,26.929696,
1692.636,27.507993,
1691.672,28.303049,
1690.708,29.503087,
1689.743,31.708906,
1688.779,34.757027,
1687.815,38.270717,
1686.851,42.222007,
1685.886,44.27681,
1684.922,41.025561,
1683.958,35.877874,
1682.994,35.896226,
1682.029,40.025497,
1681.065,44.340242,
1680.101,48.098786,
1679.137,52.002982,
1678.173,56.217969,
1677.208,59.975437,
1676.244,62.092768,
1675.280,63.515667,
1674.316,66.94086,
1673.351,73.046525,
1672.387,79.614246,
1671.423,85.288901,
1670.459,89.975175,
1669.494,91.14236,
1668.530,91.333326,
1667.566,99.740456,
1666.602,114.34738,
1665.638,124.18347,
1664.673,128.66305,
1663.709,134.14478,
1662.745,143.47423,
1661.781,154.33639,
1660.816,163.73893,
1659.852,171.44878,
1658.888,179.05249,
1657.924,187.02529,
1656.959,193.60488,
1655.995,196.75073,
1655.031,199.13271,
1654.067,207.10019,
1653.102,218.11956,
1652.138,225.62939,
1651.174,230.3682,
1650.210,237.6578,
1649.246,248.17644,
1648.281,260.56703,
1647.317,274.63241,
1646.353,290.51706,
1645.389,307.73763,
1644.424,326.74664,
1643.460,350.54352,
1642.496,381.60857,
1641.532,416.82321,
1640.567,452.97571,
1639.603,492.95341,
1638.639,540.80807,
1637.675,593.89008,
1636.711,657.7346,
1635.746,731.56014,
1634.782,808.8385,
1633.818,887.65879,
1632.854,953.52553,
1631.889,990.11768,
1630.925,991.27818,
1629.961,950.43197,
1628.997,864.75751,
1628.032,756.91819,
1627.068,651.9974,
1626.104,544.51056,
1625.140,468.68357,
1624.175,409.4688,
1623.211,355.82757,
1622.247,310.62528,
1621.283,273.91085,
1620.319,246.26828,
1619.354,224.44714,
1618.390,206.21188,
1617.426,190.26956,
1616.462,174.86989,
1615.497,159.81004,
1614.533,146.82806,
1613.569,136.79227,
1612.605,128.42284,
1611.640,119.07885,
1610.676,110.14599,
1609.712,105.20269,
1608.748,102.32633,
1607.784,96.908214,
1606.819,90.16129,
1605.855,86.08107,
1604.891,85.786882,
1603.927,86.427761,
1602.962,85.16004,
1601.998,81.507646,
1601.034,76.022151,
1600.070,69.239149,
1599.105,63.156387,
1598.141,59.969919,
1597.177,57.253758,
1596.213,50.476081,
1595.248,41.895173,
1594.284,39.09518,
1593.320,39.747671,
1592.356,39.838936,
1591.392,39.029517,
1590.427,38.26497,
1589.463,38.069171,
1588.499,37.217027,
1587.535,33.540958,
1586.570,27.507124,
1585.606,23.941502,
1584.642,26.902351,
1583.678,32.115311,
1582.713,34.496532,
1581.749,36.327755,
1580.785,35.863861,
1579.821,33.520962,
1578.857,31.118542,
1577.892,28.726471,
1576.928,27.404274,
1575.964,27.557518,
1575.000,27.917305,
1574.035,27.032314,
1573.071,25.566955,
1572.107,26.248685,
1571.143,30.522325,
1570.178,35.865737,
1569.214,39.360805,
1568.250,41.731022,
1567.286,40.720967,
1566.321,37.629709,
1565.357,36.19636,
1564.393,35.783229,
1563.429,36.550369,
1562.465,38.706769,
1561.500,41.355794,
1560.536,43.489538,
1559.572,45.02201,
1558.608,46.305752,
1557.643,47.33622,
1556.679,47.468644,
1555.715,45.836325,
1554.751,43.752246,
1553.786,44.802738,
1552.822,47.639897,
1551.858,49.027402,
1550.894,49.112165,
1549.929,48.981215,
1548.965,48.675895,
1548.001,47.794594,
1547.037,46.444352,
1546.073,45.375993,
1545.108,45.458224,
1544.144,46.624782,
1543.180,47.546512,
1542.216,47.209111,
1541.251,47.055845,
1540.287,48.54759,
1539.323,50.93109,
1538.359,54.34774,
1537.394,58.581826,
1536.430,56.709176,
1535.466,47.054148,
1534.502,38.047606,
1533.538,36.731105,
1532.573,39.115872,
1531.609,38.225053,
1530.645,33.229891,
1529.681,28.845076,
1528.716,27.531699,
1527.752,26.921352,
1526.788,26.547623,
1525.824,26.779851,
1524.859,27.299288,
1523.895,28.096652,
1522.931,28.644314,
1521.967,28.582352,
1521.002,28.138799,
1520.038,27.487433,
1519.074,26.830794,
1518.110,27.288612,
1517.146,28.790615,
1516.181,30.081437,
1515.217,30.9144,
1514.253,30.886813,
1513.289,28.941307,
1512.324,25.703419,
1511.360,22.182084,
1510.396,18.803667,
1509.432,18.004694,
1508.467,21.715404,
1507.503,25.809071,
1506.539,23.774709,
1505.575,18.910807,
1504.611,17.42142,
1503.646,18.674379,
1502.682,20.352848,
1501.718,22.517132,
1500.754,25.009734,
1499.789,27.056155,
1498.825,28.523975,
1497.861,29.634455,
1496.897,30.501264,
1495.932,31.251197,
1494.968,32.133731,
1494.004,33.292752,
1493.040,35.282817,
1492.075,37.951612,
1491.111,42.633201,
1490.147,48.595868,
1489.183,54.562277,
1488.219,60.380104,
1487.254,66.402247,
1486.290,73.115439,
1485.326,81.277662,
1484.362,91.811032,
1483.397,105.03551,
1482.433,120.62918,
1481.469,138.96718,
1480.505,159.42413,
1479.540,180.19701,
1478.576,202.88505,
1477.612,222.07454,
1476.648,238.23005,
1475.684,249.24669,
1474.719,254.71418,
1473.755,256.42649,
1472.791,255.95892,
1471.827,254.74247,
1470.862,255.35314,
1469.898,260.025,
1468.934,270.19432,
1467.970,291.74835,
1467.005,319.16642,
1466.041,341.22644,
1465.077,361.0703,
1464.113,374.64076,
1463.148,382.35077,
1462.184,383.57866,
1461.220,377.13274,
1460.256,367.0021,
1459.292,360.11951,
1458.327,356.98441,
1457.363,358.3932,
1456.399,365.78496,
1455.435,372.76161,
1454.470,373.25979,
1453.506,375.46261,
1452.542,392.44433,
1451.578,421.91177,
1450.613,455.21982,
1449.649,489.67178,
1448.685,530.25725,
1447.721,581.19562,
1446.757,641.53572,
1445.792,713.96792,
1444.828,797.64393,
1443.864,879.17608,
1442.900,956.16324,
1441.935,1026.5395,
1440.971,1085.7162,
1440.007,1132.6109,
1439.043,1163.9781,
1438.078,1176.4187,
1437.114,1168.6465,
1436.150,1139.8705,
1435.186,1095.6072,
1434.221,1047.6487,
1433.257,991.16663,
1432.293,929.00919,
1431.329,859.07104,
1430.365,789.4092,
1429.400,722.655,
1428.436,659.24864,
1427.472,599.56592,
1426.508,543.01863,
1425.543,487.29257,
1424.579,432.18668,
1423.615,381.97667,
1422.651,344.5517,
1421.686,317.03181,
1420.722,296.58343,
1419.758,283.10914,
1418.794,266.97719,
1417.830,248.83725,
1416.865,232.7451,
1415.901,220.10827,
1414.937,208.9651,
1413.973,196.70782,
1413.008,183.01877,
1412.044,168.46515,
1411.080,152.86925,
1410.116,136.53227,
1409.151,120.08372,
1408.187,104.55593,
1407.223,93.255178,
1406.259,85.482028,
1405.294,78.722306,
1404.330,72.216673,
1403.366,66.000499,
1402.402,58.233498,
1401.438,50.397497,
1400.473,46.388856,
1399.509,45.529536,
1398.545,45.168167,
1397.581,45.01523,
1396.616,47.194835,
1395.652,53.532718,
1394.688,62.743268,
1393.724,71.097906,
1392.759,76.572761,
1391.795,80.924234,
1390.831,85.122645,
1389.867,89.905748,
1388.903,105.06121,
1387.938,125.7009,
1386.974,142.93088,
1386.010,156.6002,
1385.046,168.03112,
1384.081,178.18818,
1383.117,188.0958,
1382.153,198.59852,
1381.189,209.73982,
1380.224,220.53664,
1379.260,230.63367,
1378.296,238.53748,
1377.332,239.62638,
1376.367,236.69844,
1375.403,236.90508,
1374.439,239.96268,
1373.475,241.6952,
1372.511,240.65614,
1371.546,238.71981,
1370.582,236.80365,
1369.618,234.4812,
1368.654,234.32057,
1367.689,238.00688,
1366.725,240.80059,
1365.761,239.15015,
1364.797,234.62632,
1363.832,229.40721,
1362.868,224.45882,
1361.904,221.58599,
1360.940,222.83801,
1359.976,225.31593,
1359.011,221.65758,
1358.047,213.99087,
1357.083,201.35458,
1356.119,184.76761,
1355.154,170.7154,
1354.190,161.22009,
1353.226,154.40754,
1352.262,148.30846,
1351.297,142.21514,
1350.333,135.29619,
1349.369,126.03241,
1348.405,116.37001,
1347.440,111.67548,
1346.476,109.33308,
1345.512,106.25851,
1344.548,103.17159,
1343.584,100.02296,
1342.619,96.595753,
1341.655,93.156643,
1340.691,90.154635,
1339.727,87.660974,
1338.762,85.667466,
1337.798,84.096565,
1336.834,82.213789,
1335.870,79.861241,
1334.905,79.238384,
1333.941,83.323489,
1332.977,90.966439,
1332.013,97.704649,
1331.049,101.15741,
1330.084,102.91921,
1329.120,103.07022,
1328.156,102.19802,
1327.192,106.18964,
1326.227,112.62327,
1325.263,118.74927,
1324.299,124.29159,
1323.335,130.25352,
1322.370,137.35452,
1321.406,145.43562,
1320.442,153.83722,
1319.478,162.22179,
1318.513,171.51964,
1317.549,185.49024,
1316.585,202.62349,
1315.621,216.60897,
1314.657,228.04764,
1313.692,241.12361,
1312.728,256.81121,
1311.764,277.33026,
1310.800,306.78751,
1309.835,343.32106,
1308.871,379.1679,
1307.907,411.64612,
1306.943,449.36298,
1305.978,497.54201,
1305.014,545.41189,
1304.050,576.03287,
1303.086,589.20963,
1302.122,592.09978,
1301.157,586.98992,
1300.193,573.7619,
1299.229,558.23872,
1298.265,537.59822,
1297.300,534.18698,
1296.336,541.81998,
1295.372,550.88249,
1294.408,558.74279,
1293.443,562.37347,
1292.479,558.65827,
1291.515,545.64204,
1290.551,521.04738,
1289.586,480.96353,
1288.622,434.65031,
1287.658,402.57423,
1286.694,376.45821,
1285.730,362.95099,
1284.765,362.2259,
1283.801,369.0042,
1282.837,380.29183,
1281.873,397.28598,
1280.908,420.9875,
1279.944,451.25371,
1278.980,484.04492,
1278.016,519.81513,
1277.051,553.52644,
1276.087,580.48671,
1275.123,597.08578,
1274.159,597.62491,
1273.195,580.99919,
1272.230,553.93908,
1271.266,522.94006,
1270.302,486.18519,
1269.338,449.96803,
1268.373,411.23257,
1267.409,384.73895,
1266.445,367.90354,
1265.481,354.17394,
1264.516,340.8211,
1263.552,328.58606,
1262.588,318.29072,
1261.624,309.58486,
1260.659,298.33316,
1259.695,279.73673,
1258.731,261.79683,
1257.767,252.48583,
1256.803,247.86911,
1255.838,239.52531,
1254.874,225.47588,
1253.910,211.39059,
1252.946,202.37753,
1251.981,195.55189,
1251.017,185.97684,
1250.053,174.68885,
1249.089,162.70377,
1248.124,150.42682,
1247.160,141.42136,
1246.196,138.9433,
1245.232,141.71321,
1244.268,144.55102,
1243.303,144.10384,
1242.339,143.20531,
1241.375,142.51422,
1240.411,142.33879,
1239.446,145.67121,
1238.482,151.77049,
1237.518,158.97171,
1236.554,166.80022,
1235.589,173.52329,
1234.625,174.81396,
1233.661,171.86809,
1232.697,175.0295,
1231.732,186.96854,
1230.768,200.00249,
1229.804,209.74491,
1228.840,214.66067,
1227.876,211.47673,
1226.911,198.94519,
1225.947,181.97629,
1224.983,166.74536,
1224.019,150.51438,
1223.054,125.63688,
1222.090,95.059257,
1221.126,76.632196,
1220.162,69.446682,
1219.197,67.226973,
1218.233,66.765732,
1217.269,68.068881,
1216.305,70.241567,
1215.340,72.080558,
1214.376,74.552804,
1213.412,78.307476,
1212.448,82.436216,
1211.484,85.422485,
1210.519,87.583742,
1209.555,89.272434,
1208.591,90.22637,
1207.627,91.029091,
1206.662,94.498896,
1205.698,99.197705,
1204.734,102.54475,
1203.770,105.27648,
1202.805,110.25389,
1201.841,118.70354,
1200.877,128.63844,
1199.913,136.78245,
1198.949,141.61808,
1197.984,143.91049,
1197.020,142.53499,
1196.056,137.06963,
1195.092,124.91723,
1194.127,108.23005,
1193.163,94.541299,
1192.199,85.450267,
1191.235,77.894727,
1190.270,71.217422,
1189.306,66.038149,
1188.342,58.902195,
1187.378,50.575369,
1186.413,44.740387,
1185.449,42.118921,
1184.485,40.764053,
1183.521,38.683515,
1182.557,35.725867,
1181.592,33.52293,
1180.628,33.269788,
1179.664,34.111693,
1178.700,34.528297,
1177.735,35.331773,
1176.771,39.203021,
1175.807,46.062055,
1174.843,54.880812,
1173.878,65.141365,
1172.914,76.880823,
1171.950,89.643039,
1170.986,103.69241,
1170.022,122.32304,
1169.057,146.69847,
1168.093,172.61186,
1167.129,194.77427,
1166.165,211.56149,
1165.200,223.27947,
1164.236,228.90892,
1163.272,229.53617,
1162.308,221.38788,
1161.343,206.31448,
1160.379,186.58649,
1159.415,161.42207,
1158.451,136.18699,
1157.486,114.52892,
1156.522,96.204924,
1155.558,82.334312,
1154.594,73.275842,
1153.630,65.379069,
1152.665,56.348851,
1151.701,47.560896,
1150.737,39.679604,
1149.773,32.664301,
1148.808,26.074956,
1147.844,19.534327,
1146.880,13.217144,
1145.916,8.1666349,
1144.951,4.2757479,
1143.987,3.3105096,
1143.023,5.0334535,
1142.059,5.7873535,
1141.095,3.509832,
1140.130,0.15594015,
1139.166,0,
1138.202,4.4480753,
1137.238,10.018949,
1136.273,14.29967,
1135.309,19.843482,
1134.345,29.789876,
1133.381,44.368075,
1132.416,62.622772,
1131.452,84.244993,
1130.488,110.49808,
1129.524,148.28854,
1128.559,195.07799,
1127.595,256.29509,
1126.631,331.11831,
1125.667,404.34695,
1124.703,467.81241,
1123.738,517.34269,
1122.774,545.97301,
1121.810,548.77721,
1120.846,531.15509,
1119.881,497.5816,
1118.917,455.39615,
1117.953,424.11106,
1116.989,402.40016,
1116.024,379.4934,
1115.060,349.78347,
1114.096,317.71659,
1113.132,289.93131,
1112.168,264.33513,
1111.203,243.45528,
1110.239,226.48293,
1109.275,211.83377,
1108.311,198.70284,
1107.346,187.43884,
1106.382,178.85106,
1105.418,173.53745,
1104.454,171.97121,
1103.489,173.365,
1102.525,176.42782,
1101.561,177.79091,
1100.597,176.85376,
1099.632,173.2857,
1098.668,166.19545,
1097.704,157.58026,
1096.740,158.48866,
1095.776,164.82253,
1094.811,169.4231,
1093.847,172.10646,
1092.883,176.16342,
1091.919,184.33015,
1090.954,196.0468,
1089.990,207.63995,
1089.026,216.11073,
1088.062,227.17547,
1087.097,248.31247,
1086.133,275.48829,
1085.169,302.6181,
1084.205,328.88086,
1083.241,358.51326,
1082.276,395.5964,
1081.312,437.70036,
1080.348,484.49169,
1079.384,535.31241,
1078.419,585.39631,
1077.455,633.74163,
1076.491,671.97794,
1075.527,689.01308,
1074.562,682.10797,
1073.598,662.89623,
1072.634,639.11655,
1071.670,606.14205,
1070.705,566.70081,
1069.741,522.1281,
1068.777,481.27308,
1067.813,449.00412,
1066.849,423.09985,
1065.884,406.07495,
1064.920,396.74599,
1063.956,387.4238,
1062.992,378.8273,
1062.027,375.86851,
1061.063,381.14708,
1060.099,392.40988,
1059.135,404.53381,
1058.170,414.32074,
1057.206,421.47407,
1056.242,421.56251,
1055.278,416.97878,
1054.314,407.71128,
1053.349,393.62132,
1052.385,373.954,
1051.421,347.96564,
1050.457,316.13423,
1049.492,280.23098,
1048.528,239.46412,
1047.564,205.08543,
1046.600,177.53153,
1045.635,154.34381,
1044.671,133.68821,
1043.707,116.1625,
1042.743,104.43623,
1041.778,101.1488,
1040.814,101.19102,
1039.850,98.81583,
1038.886,95.856538,
1037.922,93.516095,
1036.957,92.012506,
1035.993,90.476156,
1035.029,86.8259,
1034.065,81.681106,
1033.100,74.516399,
1032.136,65.819984,
1031.172,57.243176,
1030.208,49.246957,
1029.243,42.932935,
1028.279,40.336794,
1027.315,42.433051,
1026.351,44.746867,
1025.387,42.711883,
1024.422,40.180187,
1023.458,40.292534,
1022.494,42.399808,
1021.530,42.994508,
1020.565,39.192968,
1019.601,33.250094,
1018.637,29.279364,
1017.673,25.577182,
1016.708,25.813194,
1015.744,30.032597,
1014.780,34.169701,
1013.816,34.384572,
1012.851,31.133562,
1011.887,29.507269,
1010.923,32.826212,
1009.959,35.318343,
1008.995,33.750957,
1008.030,29.847145,
1007.066,26.855252,
1006.102,26.442742,
1005.138,27.561467,
1004.173,30.94198,
1003.209,35.725279,
1002.245,39.527156,
1001.281,43.626418,
1000.316,50.035251,
999.352,59.544159,
998.388,70.004902,
997.424,76.052331,
996.460,75.304891,
995.495,70.880625,
994.531,64.005721,
993.567,56.763553,
992.603,53.103637,
991.638,54.059391,
990.674,56.280579,
989.710,56.397496,
988.746,56.852716,
987.781,60.782698,
986.817,66.49502,
985.853,69.151221,
984.889,67.791621,
983.924,66.490394,
982.960,71.024792,
981.996,81.16031,
981.032,89.361142,
980.068,93.817926,
979.103,97.085913,
978.139,101.05544,
977.175,105.58984,
976.211,108.3357,
975.246,106.08802,
974.282,101.37919,
973.318,104.98265,
972.354,112.66092,
971.389,117.6063,
970.425,118.97146,
969.461,119.6735,
968.497,122.00771,
967.533,125.38192,
966.568,125.91793,
965.604,123.5931,
964.640,122.96359,
963.676,126.86226,
962.711,134.12106,
961.747,140.85734,
960.783,144.36148,
959.819,146.68599,
958.854,149.2657,
957.890,151.29844,
956.926,147.63442,
955.962,137.62714,
954.997,126.6443,
954.033,121.81529,
953.069,118.91424,
952.105,117.66671,
951.141,118.83582,
950.176,119.60132,
949.212,118.43844,
948.248,115.10385,
947.284,109.90773,
946.319,102.96562,
945.355,96.004371,
944.391,91.768716,
943.427,88.979786,
942.462,88.150214,
941.498,89.611413,
940.534,93.047946,
939.570,97.843962,
938.606,104.39344,
937.641,113.15495,
936.677,123.10324,
935.713,133.90816,
934.749,145.82991,
933.784,160.53997,
932.820,180.47006,
931.856,206.21546,
930.892,233.47907,
929.927,258.24924,
928.963,279.18714,
927.999,292.56099,
927.035,297.68786,
926.070,296.08075,
925.106,287.24382,
924.142,272.48158,
923.178,268.43375,
922.214,268.60125,
921.249,270.1609,
920.285,272.69921,
919.321,275.05199,
918.357,273.4242,
917.392,267.66646,
916.428,256.80231,
915.464,240.56158,
914.500,221.71574,
913.535,203.63359,
912.571,187.86212,
911.607,173.91837,
910.643,162.85154,
909.679,153.58009,
908.714,145.97557,
907.750,139.92236,
906.786,132.64568,
905.822,123.2701,
904.857,114.30828,
903.893,109.13259,
902.929,106.02876,
901.965,103.35855,
901.000,101.33394,
900.036,99.895067,
899.072,98.900593,
898.108,97.986014,
897.143,96.159615,
896.179,90.735469,
895.215,85.035681,
894.251,84.835526,
893.287,88.710864,
892.322,91.541006,
891.358,89.779503,
890.394,86.328639,
889.430,87.603193,
888.465,90.968468,
887.501,93.837038,
886.537,96.072403,
885.573,97.086019,
884.608,96.036491,
883.644,92.873411,
882.680,90.049693,
881.716,89.879249,
880.751,90.073132,
879.787,88.424196,
878.823,85.523375,
877.859,84.497684,
876.895,88.790444,
875.930,95.109449,
874.966,94.228502,
874.002,90.345733,
873.038,86.989567,
872.073,84.459496,
871.109,81.86498,
870.145,79.198535,
869.181,76.51786,
868.216,74.54353,
867.252,73.522256,
866.288,72.366461,
865.324,69.789272,
864.360,65.596169,
863.395,61.414029,
862.431,59.938334,
861.467,59.901069,
860.503,60.666874,
859.538,62.314027,
858.574,62.797071,
857.610,60.59196,
856.646,56.887283,
855.681,54.122686,
854.717,51.34164,
853.753,50.172669,
852.789,50.817664,
851.824,52.539023,
850.860,54.439511,
849.896,56.054043,
848.932,56.942324,
847.968,56.509317,
847.003,56.593933,
846.039,59.450156,
845.075,64.89369,
844.111,70.320988,
843.146,72.2047,
842.182,71.819033,
841.218,71.521424,
840.254,70.874573,
839.289,70.39762,
838.325,70.258832,
837.361,70.267277,
836.397,70.180461,
835.433,69.776163,
834.468,69.163933,
833.504,68.634468,
832.540,68.257536,
831.576,67.909757,
830.611,67.403416,
829.647,66.721354,
828.683,65.849138,
827.719,64.615746,
826.754,62.039329,
825.790,58.130049,
824.826,55.139596,
823.862,55.700592,
822.897,58.629015,
821.933,57.840794,
820.969,54.854572,
820.005,52.328473,
819.041,51.206111,
818.076,50.563018,
817.112,48.364502,
816.148,43.376155,
815.184,37.939348,
814.219,33.508641,
813.255,29.594268,
812.291,27.06334,
811.327,26.480591,
810.362,26.874865,
809.398,25.425172,
808.434,23.644223,
807.470,25.159148,
806.506,29.246614,
805.541,31.532888,
804.577,28.148561,
803.613,20.256058,
802.649,15.346507,
801.684,15.171561,
800.720,15.958663,
799.756,15.76365,
798.792,14.759189,
797.827,14.568433,
796.863,16.71966,
795.899,19.30543,
794.935,18.38339,
793.970,15.803707,
793.006,13.76509,
792.042,12.874033,
791.078,12.193392,
790.114,12.867835,
789.149,15.028629,
788.185,15.457004,
787.221,14.185743,
786.257,12.85047,
785.292,13.120933,
784.328,15.237416,
783.364,17.345991,
782.400,18.374803,
781.435,18.486599,
780.471,17.225398,
779.507,15.1255,
778.543,14.152678,
777.579,17.64946,
776.614,23.10049,
775.650,22.17144,
774.686,17.280551,
773.722,14.718325,
772.757,17.875751,
771.793,24.241112,
770.829,28.437869,
769.865,30.168757,
768.900,32.379161,
767.936,35.883951,
766.972,39.863595,
766.008,42.780712,
765.043,43.603397,
764.079,42.871641,
763.115,40.278772,
762.151,36.510613,
761.187,33.109203,
760.222,30.501442,
759.258,28.072614,
758.294,26.556261,
757.330,25.841276,
756.365,25.384835,
755.401,25.418628,
754.437,25.694779,
753.473,25.82413,
752.508,25.770667,
751.544,26.980194,
750.580,29.878586,
749.616,32.676931,
748.652,33.933405,
747.687,33.498106,
746.723,32.422793,
745.759,31.837959,
744.795,31.722949,
743.830,33.090288,
742.866,35.498765,
741.902,38.257362,
740.938,40.904021,
739.973,43.459177,
739.009,42.602566,
738.045,39.568096,
737.081,37.450011,
736.116,37.030313,
735.152,37.722211,
734.188,38.242553,
733.224,37.955447,
732.260,37.556112,
731.295,37.0005,
730.331,36.122429,
729.367,35.247359,
728.403,34.838381,
727.438,35.038897,
726.474,36.707042,
725.510,39.261832,
724.546,38.123823,
723.581,33.332566,
722.617,27.944973,
721.653,25.996272,
720.689,26.982458,
719.725,27.632462,
718.760,27.419479,
717.796,27.307177,
716.832,28.224932,
715.868,30.314023,
714.903,32.108925,
713.939,30.472602,
712.975,28.132616,
712.011,27.858596,
711.046,29.57884,
710.082,31.883824,
709.118,33.588566,
708.154,35.672067,
707.189,34.156275,
706.225,30.154693,
705.261,26.473593,
704.297,24.63705,
703.333,24.115129,
702.368,23.35068,
701.404,22.131911,
700.440,21.261701,
699.476,20.892867,
698.511,20.768511,
697.547,20.416967,
696.583,19.418009,
695.619,17.90229,
694.654,15.960257,
693.690,13.896134,
692.726,12.973422,
691.762,14.019867,
690.798,16.263504,
689.833,16.619617,
688.869,16.292429,
687.905,14.979401,
686.941,12.599894,
685.976,9.9950367,
685.012,8.805895,
684.048,9.9268483,
683.084,10.73247,
682.119,10.089824,
681.155,8.6834336,
680.191,7.2347623,
679.227,6.1202387,
678.262,5.4332304,
677.298,6.3620618,
676.334,7.748828,
675.370,7.7347885,
674.406,6.0709444,
673.441,3.8713094,
672.477,2.9608383,
671.513,3.0825256,
670.549,4.3124894,
669.584,6.437302,
668.620,8.6535695,
667.656,10.125477,
666.692,10.576681,
665.727,10.657206,
664.763,10.63778,
663.799,10.424678,
662.835,10.107864,
661.871,9.8327987,
660.906,9.7680116,
659.942,10.629909,
658.978,11.774668,
658.014,11.708489,
657.049,10.636768,
656.085,9.7721275,
655.121,10.62194,
654.157,12.81787,
653.192,14.906526,
652.228,16.692202,
651.264,17.593236,
650.300,17.148419,
649.335,15.404872,
648.371,13.824753,
647.407,14.082061,
646.443,15.183484,
645.479,17.184273,
644.514,20.076957,
643.550,23.385901,
642.586,25.361665,
641.622,26.551712,
640.657,29.954576,
639.693,34.913935,
638.729,40.196975,
637.765,44.87274,
636.800,49.498748,
635.836,51.610546,
634.872,51.44061,
633.908,51.047331,
632.944,51.845896,
631.979,54.080989,
631.015,56.350358,
630.051,56.841867,
629.087,56.509478,
628.122,56.148109,
627.158,55.992821,
626.194,55.90994,
625.230,55.616614,
624.265,55.467353,
623.301,56.104057,
622.337,56.816857,
621.373,56.553411,
620.408,54.766898,
619.444,52.173374,
618.480,49.994744,
617.516,48.143335,
616.552,47.142222,
615.587,47.330314,
614.623,48.595315,
613.659,50.181821,
612.695,51.596281,
611.730,52.628196,
610.766,51.523762,
609.802,48.605825,
608.838,45.798166,
607.873,46.173125,
606.909,48.063782,
605.945,48.004025,
604.981,46.975542,
604.017,46.371497,
603.052,47.21772,
602.088,49.464432,
601.124,51.219518,
600.160,51.890914,
599.195,52.157497,
598.231,52.50145,
597.267,52.973089,
596.303,52.958643,
595.338,51.525546,
594.374,50.301117,
593.410,50.820485,
592.446,52.784456,
591.481,54.533294,
590.517,53.464378,
589.553,50.973199,
588.589,50.719938,
587.625,51.466502,
586.660,52.007233,
585.696,51.614514,
584.732,50.541818,
583.768,48.852103,
582.803,46.971202,
581.839,46.181637,
580.875,47.377202,
579.911,50.530871,
578.946,53.849166,
577.982,54.913822,
577.018,54.825841,
576.054,53.176192,
575.089,50.155788,
574.125,46.604698,
573.161,44.269914,
572.197,42.240894,
571.233,39.436923,
570.268,35.912809,
569.304,31.930713,
568.340,27.799518,
567.376,23.585025,
566.411,20.429906,
565.447,18.356915,
564.483,16.983461,
563.519,15.982663,
562.554,15.153618,
561.590,13.952478,
560.626,10.951387,
559.662,7.49932,
558.698,5.4637076,
557.733,5.5008972,
556.769,6.3677004,
555.805,4.3089179,
554.841,1.0234944,
553.876,0.19109195,
552.912,1.7994558,
551.948,3.9434885,
550.984,3.656735,
550.019,0.94940022,
549.055,0,
548.091,1.4453933,
547.127,4.1059956,
546.162,6.162798,
545.198,6.2269733,
544.234,5.9712024,
543.270,7.0688837,
542.306,8.8029296,
541.341,10.072526,
540.377,10.119856,
539.413,9.9504147,
538.449,12.629606,
537.484,16.520125,
536.520,21.30681,
535.556,26.910563,
534.592,32.822444,
533.627,34.873754,
532.663,33.659243,
531.699,32.189851,
530.735,31.35437,
529.771,31.155727,
528.806,30.96136,
527.842,30.797607,
526.878,30.766153,
525.914,30.642096,
524.949,30.257811,
523.985,29.32814,
523.021,27.288996,
522.057,24.523045,
521.092,23.967788,
520.128,25.036944,
519.164,25.760373,
518.200,24.134999,
517.235,20.802764,
516.271,20.472385,
515.307,22.67516,
514.343,25.434112,
513.379,27.312204,
512.414,27.807167,
511.450,26.92874,
510.486,24.100997,
509.522,20.989954,
508.557,19.368999,
507.593,19.774337,
506.629,20.472547,
505.665,18.75103,
504.700,16.529733,
503.736,14.067883,
502.772,11.428178,
501.808,9.0802694,
500.844,9.2791625,
499.879,11.234208,
498.915,13.578096,
497.951,16.202258,
496.987,18.961917,
496.022,21.610616,
495.058,23.898376,
494.094,24.360282,
493.130,22.088862,
492.165,18.43529,
491.201,15.620315,
490.237,16.098457,
489.273,17.59674,
488.308,17.323489,
487.344,15.879706,
486.380,13.660631,
485.416,10.941165,
484.452,7.9704288,
483.487,7.6758893,
482.523,9.038872,
481.559,10.575873,
480.595,11.338705,
479.630,11.330711,
478.666,13.754406,
477.702,19.692872,
476.738,25.960172,
475.773,30.19273,
474.809,31.410371,
473.845,31.302889,
472.881,30.982957,
471.917,29.710999,
470.952,26.803834,
469.988,22.16459,
469.024,16.556938,
468.060,13.649164,
467.095,12.101522,
466.131,11.069602,
465.167,10.382849,
464.203,10.130348,
463.238,10.588467,
462.274,11.881206,
461.310,12.439691,
460.346,12.052328,
459.381,11.089231,
458.417,10.160803,
457.453,9.3927257,
456.489,9.1000881,
455.525,10.780021,
454.560,13.866469,
453.596,16.999404,
452.632,18.380923,
451.668,19.110123,
450.703,18.886223,
449.739,17.681999,
448.775,16.491693,
447.811,16.466334,
446.846,17.326274,
445.882,17.803803,
444.918,18.05136,
443.954,18.809239,
442.990,20.674705,
442.025,23.863722,
441.061,26.973465,
440.097,28.729912,
439.133,29.757039,
438.168,30.663755,
437.204,31.890855,
436.240,33.145521,
435.276,33.635685,
434.311,33.76435,
433.347,32.930293,
432.383,30.767234,
431.419,27.51394,
430.454,26.884914,
429.490,27.660992,
428.526,30.1034,
427.562,34.301866,
426.598,39.717323,
425.633,43.050527,
424.669,42.301678,
423.705,40.561247,
422.741,39.480317,
421.776,39.489768,
420.812,39.309667,
419.848,36.616531,
418.884,33.042462,
417.919,29.450007,
416.955,26.003451,
415.991,22.565734,
415.027,20.419571,
414.063,18.953312,
413.098,19.341572,
412.134,21.619576,
411.170,25.013988,
410.206,27.698072,
409.241,29.460306,
408.277,29.201519,
407.313,26.22613,
406.349,21.437632,
405.384,17.176501,
404.420,17.273353,
403.456,18.8234,
402.492,20.801195,
401.527,23.058341,
400.563,25.414758,
399.599,26.334212,
398.635,26.544902,
397.671,26.456078,
396.706,26.010787,
395.742,25.694962,
394.778,26.801541,
393.814,29.122474,
392.849,29.469727,
391.885,27.764953,
390.921,25.482907,
389.957,24.989194,
388.992,28.287584,
388.028,31.251424,
387.064,31.663995,
386.100,30.265797,
385.136,28.641282,
384.171,28.381733,
383.207,28.73264,
382.243,31.384562,
381.279,35.927245,
380.314,40.541628,
379.350,42.191634,
378.386,42.330752,
377.422,40.719211,
376.457,37.532935,
375.493,34.742218,
374.529,34.975794,
373.565,38.913865,
372.600,42.670227,
371.636,45.315385,
370.672,47.067595,
369.708,48.35982,
368.744,49.283405,
367.779,50.653499,
366.815,52.762656,
365.851,54.944737,
364.887,56.309485,
363.922,55.850941,
362.958,54.230211,
361.994,55.60453,
361.030,59.243498,
360.065,62.709247,
359.101,62.86313,
358.137,59.751655,
357.173,56.921552,
356.209,54.689815,
355.244,52.894601,
354.280,51.267821,
353.316,49.825414,
352.352,49.811923,
351.387,51.94562,
350.423,55.063609,
349.459,57.213099,
348.495,55.58526,
347.530,52.469736,
346.566,51.439043,
345.602,51.723204,
344.638,52.842533,
343.673,54.808252,
342.709,57.765073,
341.745,59.731002,
340.781,61.09384,
339.817,61.784322,
338.852,61.507908,
337.888,59.960277,
336.924,60.257364,
335.960,63.244806,
334.995,67.73179,
334.031,71.824029,
333.067,73.506081,
332.103,73.983741,
331.138,73.002638,
330.174,70.97495,
329.210,68.919728,
328.246,68.851842,
327.282,69.560425,
326.317,72.275316,
325.353,76.751615,
324.389,80.793138,
323.425,79.987768,
322.460,74.819651,
321.496,72.769797,
320.532,74.165743,
319.568,77.352245,
318.603,79.216512,
317.639,77.281753,
316.675,75.652315,
315.711,75.99304,
314.746,78.136765,
313.782,80.996623,
312.818,83.767114,
311.854,87.114248,
310.890,90.436486,
309.925,93.44218,
308.961,95.713626,
307.997,95.614267,
307.033,93.923066,
306.068,94.351066,
305.104,97.176695,
304.140,101.26529,
303.176,103.40225,
302.211,102.88594,
301.247,101.30686,
300.283,98.792188,
299.319,95.691181,
298.355,92.939585,
297.390,93.179008,
296.426,94.278625,
295.462,95.457009,
294.498,96.511175,
293.533,97.88029,
292.569,97.145233,
291.605,95.068616,
290.641,93.359295,
289.676,92.647571,
288.712,92.665644,
287.748,95.386266,
286.784,99.970428,
285.819,103.63108,
284.855,105.01741,
283.891,103.89599,
282.927,102.31443,
281.963,101.78214,
280.998,102.09843,
280.034,103.07567,
279.070,104.4151,
278.106,105.12757,
277.141,104.11843,
276.177,101.91357,
275.213,98.566079,
274.249,94.122668,
273.284,89.249341,
272.320,88.322593,
271.356,89.335398,
270.392,90.613009,
269.428,90.881038,
268.463,90.654711,
267.499,92.444291,
266.535,96.157018,
265.571,100.10902,
264.606,102.29529,
263.642,100.90836,
262.678,98.057243,
261.714,95.055278,
260.749,92.405731,
259.785,90.884724,
258.821,92.836383,
257.857,96.416408,
256.892,97.50681,
255.928,96.413388,
254.964,94.445638,
254.000,93.910737,
253.036,93.931761,
252.071,95.027089,
251.107,97.114254,
250.143,99.840889,
249.179,102.5115,
248.214,105.00558,
247.250,107.75407,
246.286,110.99775,
245.322,114.52313,
244.357,117.13199,
243.393,116.23717,
242.429,114.74602,
241.465,115.00673,
240.500,117.90188,
239.536,121.51366,
238.572,121.19889,
237.608,119.51193,
236.644,118.12992,
235.679,117.86529,
234.715,117.95541,
233.751,120.96312,
232.787,125.83626,
231.822,129.85015,
230.858,131.12692,
229.894,129.43206,
228.930,129.43289,
227.965,131.84718,
227.001,134.78498,
226.037,136.28401,
225.073,134.52923,
224.109,132.37753,
223.144,132.33047,
222.180,133.98947,
221.216,136.85137,
220.252,140.95269,
219.287,145.81372,
218.323,147.45104,
217.359,146.38136,
216.395,144.31841,
215.430,144.84592,
214.466,146.66795,
213.502,148.3658,
212.538,149.86677,
211.573,151.25408,
210.609,152.53363,
209.645,153.60098,
208.681,154.63569,
207.717,155.65293,
206.752,156.66293,
205.788,157.69798,
204.824,159.28633,
203.860,161.13293,
202.895,162.60816,
201.931,163.22165,
200.967,163.26673,
200.003,164.94872,
199.038,167.09193,
198.074,168.82517,
197.110,169.63356,
196.146,170.64321,
195.182,173.33774,
194.217,177.25865,
193.253,181.37781,
192.289,184.37843,
191.325,184.70468,
190.360,185.28676,
189.396,188.08496,
188.432,192.80003,
187.468,197.95754,
186.503,200.37775,
185.539,202.51041,
184.575,205.65064,
183.611,209.7024,
182.646,213.71924,
181.682,215.71516,
180.718,216.96226,
179.754,220.09756,
178.790,225.91553,
177.825,233.79418,
176.861,239.37587,
175.897,243.0056,
174.933,245.38148,
173.968,246.99063,
173.004,248.17548,
172.040,251.88387,
171.076,259.41909,
170.111,268.90066,
169.147,278.09585,
168.183,284.16326,
167.219,289.21087,
166.255,294.94598,
165.290,301.02928,
164.326,306.90234,
163.362,311.92871,
162.398,316.24779,
161.433,320.17194,
160.469,323.93616,
159.505,327.53041,
158.541,329.5407,
157.576,329.97751,
156.612,332.91736,
155.648,339.72093,
154.684,350.43304,
153.719,360.46002,
152.755,366.78523,
151.791,371.91828,
150.827,377.37824,
149.863,384.28625,
148.898,393.22229,
147.934,405.27253,
146.970,419.18122,
146.006,433.28407,
145.041,445.13058,
144.077,455.84592,
143.113,465.86586,
142.149,475.30386,
141.184,484.82353,
140.220,496.30084,
139.256,510.13954,
138.292,528.06588,
137.328,550.69419,
136.363,577.17615,
135.399,603.56831,
134.435,625.79385,
133.471,645.3718,
132.506,662.37884,
131.542,677.00844,
130.578,692.48906,
129.614,716.88737,
128.649,745.71114,
127.685,776.52192,
126.721,807.30193,
125.757,840.22013,
124.792,874.96487,
123.828,911.41728,
122.864,948.55018,
121.900,984.7324,
120.936,1020.0949,
119.971,1055.5556,
119.007,1091.1847,
118.043,1127.289,
117.079,1164.6903,
116.114,1203.8982,
115.150,1244.3229,
114.186,1286.7464,
113.222,1331.7765,
112.257,1379.8569,
111.293,1427.9604,
110.329,1475.786,
109.365,1524.8399,
108.401,1576.4846,
107.436,1630.5324,
106.472,1676.1285,
105.508,1717.8352,
104.544,1760.6836,
103.579,1811.6664,
102.615,1868.3215,
101.651,1914.8253,
100.687,1949.4002,
99.722,1972.9538,
98.758,1990.1681,
97.794,2003.1523,
96.830,2010.4337,
95.865,2010.806,
94.901,2003.6063,
93.937,1989.3582,
92.973,1978.5257,
92.009,1969.3538,
91.044,1959.867,
90.080,1947.887,
89.116,1933.2546,
88.152,1924.5092,
87.187,1918.6911,
86.223,1914.2884,
85.259,1911.1233,
84.295,1911.6649,
83.330,1911.9019,
82.366,1911.6469,
81.402,1912.1912,
80.438,1920.3572,
79.474,1938.2275,
78.509,1956.2037,
77.545,1968.8684,
76.581,1972.3063,
75.617,1973.8528,
74.652,1980.8216,
73.688,1990.4148,
72.724,2000.7185,
71.760,2009.9824,
70.795,2013.5209,
69.831,2008.7614,
68.867,1999.4523,
67.903,1992.181,
66.938,2004.4731,
65.974,2031.0982,
65.010,2057.1508,
64.046,2078.8366,
63.082,2095.4778,
62.117,2116.8882,
61.153,2145.7163,
60.189,2177.3953,
59.225,2208.6637,
58.260,2236.4372,
57.296,2260.9172,
56.332,2283.0009,
55.368,2303.5569,
54.403,2323.1187,
53.439,2341.0006,
52.475,2356.7855,
51.511,2368.2896,
50.547,2376.3353,
