,PET spectra,
Raman shift [1/cm],Counts/sec,
3409.936,-13.719271,
3408.972,-11.714583,
3408.007,-10.489453,
3407.043,-7.7040362,
3406.079,-3.7983072,
3405.115,-0.3217448,
3404.150,1.3388021,
3403.186,-3.815625,
3402.222,-11.794922,
3401.258,-9.536068,
3400.293,-3.6764324,
3399.329,1.6277344,
3398.365,5.7647138,
3397.401,7.3313804,
3396.437,4.0688801,
3395.472,-4.5842447,
3394.508,-8.1768227,
3393.544,-0.87317711,
3392.580,3.835547,
3391.615,3.7158854,
3390.651,4.9822917,
3389.687,5.9957032,
3388.723,4.6483073,
3387.758,4.4680991,
3386.794,10.808073,
3385.830,17.690365,
3384.866,11.067839,
3383.901,3.8813803,
3382.937,7.9356771,
3381.973,10.610156,
3381.009,6.9208331,
3380.045,4.6002603,
3379.080,5.0483074,
3378.116,9.124609,
3377.152,15.504167,
3376.188,17.113802,
3375.223,14.147265,
3374.259,14.45638,
3373.295,16.025,
3372.331,15.509766,
3371.366,14.875781,
3370.402,15.425,
3369.438,16.199739,
3368.474,15.61888,
3367.510,14.072786,
3366.545,12.006771,
3365.581,11.994532,
3364.617,15.327604,
3363.653,16.810156,
3362.688,15.085026,
3361.724,17.780079,
3360.760,23.036589,
3359.796,25.08086,
3358.831,26.075911,
3357.867,24.833073,
3356.903,22.248047,
3355.939,19.216927,
3354.974,17.575911,
3354.010,22.78828,
3353.046,27.88776,
3352.082,26.710546,
3351.118,26.779297,
3350.153,29.949089,
3349.189,30.980339,
3348.225,29.927996,
3347.261,26.95026,
3346.296,23.15638,
3345.332,22.358984,
3344.368,24.728516,
3343.404,27.738411,
3342.439,30.938932,
3341.475,32.429688,
3340.511,32.456642,
3339.547,30.414713,
3338.583,30.882162,
3337.618,37.310024,
3336.654,41.288933,
3335.690,36.879688,
3334.726,33.486851,
3333.761,34.452602,
3332.797,37.746094,
3331.833,43.464062,
3330.869,43.525913,
3329.904,39.344402,
3328.940,38.834373,
3327.976,38.54961,
3327.012,38.811718,
3326.047,40.120182,
3325.083,42.592319,
3324.119,45.807163,
3323.155,49.845703,
3322.191,49.438412,
3321.226,36.677994,
3320.262,30.954166,
3319.298,43.586067,
3318.334,49.797134,
3317.369,46.214844,
3316.405,42.552212,
3315.441,39.905598,
3314.477,41.276302,
3313.512,46.410286,
3312.548,46.945702,
3311.584,42.983852,
3310.620,45.158463,
3309.656,49.046352,
3308.691,45.664192,
3307.727,41.452343,
3306.763,39.281902,
3305.799,38.971615,
3304.834,41.092838,
3303.870,42.729298,
3302.906,41.386066,
3301.942,40.428905,
3300.977,42.395832,
3300.013,45.430599,
3299.049,48.782551,
3298.085,49.928905,
3297.120,48.472267,
3296.156,47.060417,
3295.192,46.223698,
3294.228,45.519791,
3293.264,45.358204,
3292.299,46.807941,
3291.335,48.673306,
3290.371,47.556511,
3289.407,45.311588,
3288.442,44.412632,
3287.478,44.929947,
3286.514,46.996876,
3285.550,48.865234,
3284.585,49.676041,
3283.621,50.620834,
3282.657,51.446095,
3281.693,50.605858,
3280.729,48.884377,
3279.764,50.121353,
3278.800,54.313801,
3277.836,54.314583,
3276.872,51.830467,
3275.907,54.08672,
3274.943,57.215233,
3273.979,54.776302,
3273.015,49.807941,
3272.050,47.539322,
3271.086,46.696095,
3270.122,46.78698,
3269.158,47.508984,
3268.193,47.347527,
3267.229,49.514194,
3266.265,55.415493,
3265.301,59.813282,
3264.337,61.752083,
3263.372,58.709507,
3262.408,52.077213,
3261.444,49.177082,
3260.480,50.459637,
3259.515,51.381382,
3258.551,52.722786,
3257.587,55.705338,
3256.623,59.402084,
3255.658,58.001041,
3254.694,54.99453,
3253.730,54.532944,
3252.766,57.320442,
3251.802,63.959244,
3250.837,68.251434,
3249.873,62.51276,
3248.909,58.147915,
3247.945,63.295704,
3246.980,65.680862,
3246.016,61.159634,
3245.052,57.991405,
3244.088,56.147396,
3243.123,59.779556,
3242.159,67.362236,
3241.195,70.725128,
3240.231,69.70182,
3239.266,70.833855,
3238.302,72.945961,
3237.338,67.776299,
3236.374,60.188282,
3235.410,66.43737,
3234.445,75.750259,
3233.481,78.052605,
3232.517,78.172783,
3231.553,79.706642,
3230.588,82.658981,
3229.624,87.219269,
3228.660,93.180992,
3227.696,99.314453,
3226.731,101.21862,
3225.767,97.860283,
3224.803,99.124092,
3223.839,105.80338,
3222.875,107.3513,
3221.910,104.22747,
3220.946,102.21042,
3219.982,101.36446,
3219.018,99.041145,
3218.053,95.309242,
3217.089,91.14167,
3216.125,87.305466,
3215.161,91.082809,
3214.196,96.085938,
3213.232,92.621223,
3212.268,88.030991,
3211.304,85.384766,
3210.339,83.761848,
3209.375,83.890625,
3208.411,82.373566,
3207.447,75.754425,
3206.483,71.226433,
3205.518,73.087242,
3204.554,76.393623,
3203.590,80.729164,
3202.626,80.379684,
3201.661,73.805206,
3200.697,70.585678,
3199.733,72.01667,
3198.769,75.995575,
3197.804,80.238411,
3196.840,79.86393,
3195.876,74.67878,
3194.912,71.220703,
3193.948,70.418358,
3192.983,69.241013,
3192.019,68.567451,
3191.055,70.977341,
3190.091,74.549088,
3189.126,78.026695,
3188.162,77.930206,
3187.198,69.530342,
3186.234,60.667057,
3185.269,59.332161,
3184.305,62.147137,
3183.341,69.513802,
3182.377,74.694794,
3181.412,75.455727,
3180.448,74.063934,
3179.484,70.402603,
3178.520,70.938675,
3177.556,75.8582,
3176.591,78.224869,
3175.627,77.061722,
3174.663,76.739845,
3173.699,76.085419,
3172.734,74.373825,
3171.770,73.388672,
3170.806,74.418098,
3169.842,75.25,
3168.877,71.26667,
3167.913,67.624611,
3166.949,73.072395,
3165.985,81.712372,
3165.020,81.226303,
3164.056,77.112892,
3163.092,75.590889,
3162.128,74.214714,
3161.164,74.761978,
3160.199,76.40065,
3159.235,79.603645,
3158.271,81.01992,
3157.307,79.746613,
3156.342,82.326691,
3155.378,88.450653,
3154.414,91.569138,
3153.450,90.173569,
3152.485,87.528122,
3151.521,85.239456,
3150.557,88.636978,
3149.593,96.144791,
3148.629,94.789322,
3147.664,90.332939,
3146.700,90.917061,
3145.736,93.506767,
3144.772,91.746223,
3143.807,88.991013,
3142.843,92.731903,
3141.879,97.682686,
3140.915,94.073174,
3139.950,90.231903,
3138.986,94.271355,
3138.022,97.670441,
3137.058,94.294533,
3136.093,88.891144,
3135.129,85.23008,
3134.165,83.918098,
3133.201,85.040497,
3132.237,87.410416,
3131.272,89.452477,
3130.308,89.61927,
3129.344,89.276955,
3128.380,94.808205,
3127.415,106.12591,
3126.451,106.4569,
3125.487,95.398308,
3124.523,92.353775,
3123.558,98.04258,
3122.594,98.57695,
3121.630,92.945572,
3120.666,93.24453,
3119.702,98.250778,
3118.737,97.229294,
3117.773,94.479424,
3116.809,95.169273,
3115.845,97.569923,
3114.880,104.30469,
3113.916,111.49987,
3112.952,114.94883,
3111.988,117.4918,
3111.023,121.96953,
3110.059,126.0789,
3109.095,127.34675,
3108.131,127.6181,
3107.166,128.69844,
3106.202,133.42397,
3105.238,144.48203,
3104.274,155.20352,
3103.310,162.7375,
3102.345,171.05429,
3101.381,181.30273,
3100.417,187.17331,
3099.453,186.52422,
3098.488,186.0556,
3097.524,188.73007,
3096.560,199.12656,
3095.596,217.20833,
3094.631,229.08163,
3093.667,237.2892,
3092.703,254.65195,
3091.739,280.11835,
3090.775,307.31863,
3089.810,336.284,
3088.846,371.41211,
3087.882,411.0401,
3086.918,447.90222,
3085.953,484.85052,
3084.989,529.98633,
3084.025,578.35754,
3083.061,625.48126,
3082.096,672.2818,
3081.132,717.56195,
3080.168,755.7406,
3079.204,778.56195,
3078.239,787.13727,
3077.275,782.16602,
3076.311,764.75702,
3075.347,734.60675,
3074.383,695.47797,
3073.418,652.64191,
3072.454,607.94586,
3071.490,564.33319,
3070.526,525.33813,
3069.561,492.66354,
3068.597,467.06784,
3067.633,448.74869,
3066.669,435.09766,
3065.704,424.68671,
3064.740,413.11603,
3063.776,397.05533,
3062.812,379.18866,
3061.848,359.03488,
3060.883,332.95938,
3059.919,302.43686,
3058.955,273.61356,
3057.991,247.12643,
3057.026,222.1086,
3056.062,200.58359,
3055.098,187.64609,
3054.134,182.74193,
3053.169,178.00951,
3052.205,172.82382,
3051.241,166.08464,
3050.277,159.80144,
3049.312,153.32123,
3048.348,146.56966,
3047.384,140.29897,
3046.420,135.38698,
3045.456,132.65625,
3044.491,131.50247,
3043.527,130.74635,
3042.563,129.23894,
3041.599,124.66524,
3040.634,119.8914,
3039.670,116.13294,
3038.706,114.1552,
3037.742,115.92305,
3036.777,117.82291,
3035.813,116.90195,
3034.849,116.77773,
3033.885,120.43645,
3032.921,125.30078,
3031.956,130.46498,
3030.992,133.1013,
3030.028,129.44141,
3029.064,128.6642,
3028.099,133.70547,
3027.135,135.40053,
3026.171,132.02019,
3025.207,130.76913,
3024.242,133.71042,
3023.278,137.41576,
3022.314,139.85001,
3021.350,140.86589,
3020.385,141.37669,
3019.421,146.08919,
3018.457,155.77188,
3017.493,160.98412,
3016.529,161.23334,
3015.564,163.64961,
3014.600,169.34726,
3013.636,177.78111,
3012.672,186.87695,
3011.707,190.13802,
3010.743,188.38606,
3009.779,192.97591,
3008.815,202.50508,
3007.850,205.62006,
3006.886,208.0112,
3005.922,220.88008,
3004.958,236.72369,
3003.994,244.66667,
3003.029,248.20651,
3002.065,255.21758,
3001.101,264.09714,
3000.137,270.24557,
2999.172,274.95001,
2998.208,280.09686,
2997.244,285.00012,
2996.280,287.37735,
2995.315,286.83582,
2994.351,282.96732,
2993.387,278.79922,
2992.423,276.6203,
2991.458,274.06927,
2990.494,269.34531,
2989.530,265.897,
2988.566,267.48438,
2987.602,271.96002,
2986.637,280.78424,
2985.673,287.69791,
2984.709,286.4422,
2983.745,286.41068,
2982.780,290.04062,
2981.816,293.55807,
2980.852,296.19363,
2979.888,301.21652,
2978.923,310.27969,
2977.959,320.31158,
2976.995,330.05548,
2976.031,339.78033,
2975.067,348.62759,
2974.102,362.29974,
2973.138,381.26901,
2972.174,399.52408,
2971.210,417.16574,
2970.245,434.35858,
2969.281,450.46146,
2968.317,466.59738,
2967.353,482.73605,
2966.388,494.4884,
2965.424,500.95428,
2964.460,514.46863,
2963.496,537.43335,
2962.531,546.53943,
2961.567,543.26862,
2960.603,547.72198,
2959.639,557.65063,
2958.675,559.50354,
2957.710,552.2514,
2956.746,543.79767,
2955.782,535.32434,
2954.818,526.13098,
2953.853,517.85065,
2952.889,507.25574,
2951.925,494.61731,
2950.961,488.53061,
2949.996,483.25287,
2949.032,474.96094,
2948.068,466.52487,
2947.104,461.05469,
2946.140,457.48816,
2945.175,450.79022,
2944.211,442.19061,
2943.247,442.35104,
2942.283,449.12851,
2941.318,446.48465,
2940.354,441.11276,
2939.390,445.13464,
2938.426,450.3815,
2937.461,446.25247,
2936.497,438.42175,
2935.533,438.22293,
2934.569,443.65027,
2933.604,445.40262,
2932.640,444.10977,
2931.676,446.68137,
2930.712,451.3591,
2929.748,449.41888,
2928.783,446.12592,
2927.819,448.46341,
2926.855,452.79388,
2925.891,455.32162,
2924.926,455.92136,
2923.962,454.99103,
2922.998,453.3909,
2922.034,452.46106,
2921.069,450.86444,
2920.105,444.65155,
2919.141,436.50586,
2918.177,429.64166,
2917.213,421.2832,
2916.248,410.68527,
2915.284,399.85742,
2914.320,390.47473,
2913.356,384.31238,
2912.391,383.23764,
2911.427,383.26108,
2910.463,377.87408,
2909.499,372.29871,
2908.534,372.89258,
2907.570,376.27383,
2906.606,379.30377,
2905.642,381.67746,
2904.677,381.79636,
2903.713,381.87552,
2902.749,384.70496,
2901.785,388.70599,
2900.821,391.21811,
2899.856,393.27643,
2898.892,397.63074,
2897.928,400.85846,
2896.964,395.60013,
2895.999,390.29074,
2895.035,393.15808,
2894.071,393.14935,
2893.107,384.76523,
2892.142,376.46173,
2891.178,372.29324,
2890.214,366.52448,
2889.250,356.07254,
2888.286,347.13644,
2887.321,344.01874,
2886.357,344.04245,
2885.393,345.83307,
2884.429,347.63541,
2883.464,348.59558,
2882.500,352.17709,
2881.536,359.84311,
2880.572,367.04688,
2879.607,370.59738,
2878.643,368.70145,
2877.679,358.91183,
2876.715,345.03699,
2875.750,329.93387,
2874.786,313.30234,
2873.822,295.18073,
2872.858,282.02332,
2871.894,278.01355,
2870.929,270.87955,
2869.965,256.57123,
2869.001,244.07278,
2868.037,239.08685,
2867.072,239.09883,
2866.108,241.30704,
2865.144,240.89218,
2864.180,233.0694,
2863.215,226.2095,
2862.251,224.65599,
2861.287,225.43736,
2860.323,228.56549,
2859.359,234.02734,
2858.394,242.20964,
2857.430,245.65469,
2856.466,238.84544,
2855.502,232.31081,
2854.537,234.74896,
2853.573,240.40639,
2852.609,246.20131,
2851.645,251.06888,
2850.680,253.0013,
2849.716,255.82227,
2848.752,261.53464,
2847.788,262.32825,
2846.823,254.16263,
2845.859,245.23308,
2844.895,241.76106,
2843.931,237.90482,
2842.967,229.91055,
2842.002,218.77682,
2841.038,201.89192,
2840.074,184.17682,
2839.110,171.02071,
2838.145,155.25729,
2837.181,134.13008,
2836.217,118.4888,
2835.253,113.5056,
2834.288,111.71432,
2833.324,107.27331,
2832.360,100.00273,
2831.396,89.406898,
2830.431,80.195313,
2829.467,76.555733,
2828.503,74.738541,
2827.539,72.010414,
2826.575,71.352997,
2825.610,75.633858,
2824.646,76.090363,
2823.682,67.617836,
2822.718,59.743752,
2821.753,59.766148,
2820.789,62.416275,
2819.825,62.610806,
2818.861,61.45612,
2817.896,59.017708,
2816.932,57.079556,
2815.968,58.540886,
2815.004,61.10091,
2814.040,63.764194,
2813.075,63.946095,
2812.111,58.67448,
2811.147,54.786198,
2810.183,58.488804,
2809.218,61.869793,
2808.254,57.941666,
2807.290,55.143101,
2806.326,56.892708,
2805.361,58.563282,
2804.397,58.183723,
2803.433,56.535416,
2802.469,54.790363,
2801.504,55.408985,
2800.540,58.729557,
2799.576,59.261196,
2798.612,52.987629,
2797.648,45.178905,
2796.683,41.122787,
2795.719,39.748699,
2794.755,44.947655,
2793.791,52.889061,
2792.826,59.105858,
2791.862,62.389973,
2790.898,57.386066,
2789.934,49.851303,
2788.969,46.151821,
2788.005,47.311329,
2787.041,53.101563,
2786.077,59.533073,
2785.113,59.900913,
2784.148,56.643749,
2783.184,54.846355,
2782.220,52.835808,
2781.256,49.098827,
2780.291,47.93737,
2779.327,56.596615,
2778.363,65.457939,
2777.399,62.122395,
2776.434,51.365105,
2775.470,42.792187,
2774.506,38.770054,
2773.542,41.820572,
2772.577,48.909115,
2771.613,50.345314,
2770.649,48.164322,
2769.685,43.857033,
2768.721,38.955338,
2767.756,38.584896,
2766.792,41.404167,
2765.828,46.045834,
2764.864,49.453907,
2763.899,44.914452,
2762.935,35.141148,
2761.971,34.158592,
2761.007,41.283985,
2760.042,40.531639,
2759.078,33.097267,
2758.114,37.539192,
2757.150,48.235806,
2756.186,47.857681,
2755.221,42.933723,
2754.257,41.95612,
2753.293,43.437759,
2752.329,41.003517,
2751.364,35.225132,
2750.400,33.449871,
2749.436,35.546093,
2748.472,32.434116,
2747.507,23.85573,
2746.543,23.615496,
2745.579,31.802734,
2744.615,38.297134,
2743.650,42.837631,
2742.686,44.845573,
2741.722,44.378647,
2740.758,44.103775,
2739.794,44.438801,
2738.829,42.716927,
2737.865,39.462502,
2736.901,38.90065,
2735.937,41.848179,
2734.972,40.327084,
2734.008,31.693621,
2733.044,29.097527,
2732.080,36.197136,
2731.115,40.506119,
2730.151,36.945313,
2729.187,34.381248,
2728.223,36.641926,
2727.259,37.362629,
2726.294,33.58242,
2725.330,31.009245,
2724.366,33.091797,
2723.402,34.74987,
2722.437,33.540756,
2721.473,32.372135,
2720.509,32.834896,
2719.545,34.488281,
2718.580,36.473698,
2717.616,36.41758,
2716.652,32.277996,
2715.688,27.694921,
2714.723,27.49297,
2713.759,28.832031,
2712.795,29.93177,
2711.831,30.271223,
2710.867,29.479818,
2709.902,27.760416,
2708.938,23.717188,
2707.974,19.94388,
2707.010,20.080208,
2706.045,21.920572,
2705.081,20.967318,
2704.117,18.678646,
2703.153,18.136719,
2702.188,16.673958,
2701.224,16.308332,
2700.260,19.096485,
2699.296,17.509636,
2698.332,15.382552,
2697.367,18.039845,
2696.403,21.231901,
2695.439,21.950911,
2694.475,21.532162,
2693.510,19.884245,
2692.546,16.433332,
2691.582,13.346484,
2690.618,11.705209,
2689.653,13.777735,
2688.689,20.167839,
2687.725,24.401823,
2686.761,25.489323,
2685.796,24.257421,
2684.832,22.337629,
2683.868,19.492058,
2682.904,15.667188,
2681.940,13.427734,
2680.975,13.869532,
2680.011,15.967838,
2679.047,19.206511,
2678.083,18.415104,
2677.118,11.253125,
2676.154,9.5644531,
2675.190,16.043751,
2674.226,19.655859,
2673.261,17.844921,
2672.297,15.927343,
2671.333,17.029688,
2670.369,18.922525,
2669.405,18.770182,
2668.440,17.859636,
2667.476,18.564453,
2666.512,19.24427,
2665.548,18.270834,
2664.583,17.683332,
2663.619,17.854036,
2662.655,17.79336,
2661.691,17.440235,
2660.726,16.594011,
2659.762,15.541016,
2658.798,15.401302,
2657.834,17.017448,
2656.869,18.658073,
2655.905,18.930729,
2654.941,20.070051,
2653.977,23.307161,
2653.013,27.446484,
2652.048,26.838673,
2651.084,23.220312,
2650.120,22.622526,
2649.156,24.228516,
2648.191,24.808464,
2647.227,23.858204,
2646.263,22.140495,
2645.299,20.005859,
2644.334,18.191015,
2643.370,17.371744,
2642.406,18.705339,
2641.442,22.521355,
2640.478,22.938932,
2639.513,18.702213,
2638.549,19.403126,
2637.585,26.058855,
2636.621,28.284245,
2635.656,23.165365,
2634.692,20.475521,
2633.728,25.14922,
2632.764,31.247526,
2631.799,34.276955,
2630.835,36.078514,
2629.871,36.092968,
2628.907,33.725262,
2627.942,31.055208,
2626.978,28.434244,
2626.014,24.75013,
2625.050,23.566015,
2624.086,28.701693,
2623.121,35.25716,
2622.157,36.580467,
2621.193,34.632683,
2620.229,32.557941,
2619.264,31.259504,
2618.300,35.211197,
2617.336,41.157421,
2616.372,40.917316,
2615.407,36.86784,
2614.443,31.37487,
2613.479,26.645182,
2612.515,26.128906,
2611.551,29.494402,
2610.586,35.275913,
2609.622,40.774349,
2608.658,38.815235,
2607.694,29.948568,
2606.729,28.809896,
2605.765,36.85677,
2604.801,39.016796,
2603.837,34.520573,
2602.872,31.723047,
2601.908,31.741537,
2600.944,32.460415,
2599.980,33.118099,
2599.015,32.671223,
2598.051,30.310026,
2597.087,26.873959,
2596.123,22.656511,
2595.159,19.994011,
2594.194,22.35638,
2593.230,24.584375,
2592.266,21.877735,
2591.302,18.230078,
2590.337,16.780079,
2589.373,16.673437,
2588.409,16.498438,
2587.445,17.052734,
2586.480,20.206902,
2585.516,24.716667,
2584.552,26.999739,
2583.588,27.474871,
2582.624,28.023699,
2581.659,28.372526,
2580.695,26.897266,
2579.731,24.270573,
2578.767,19.41888,
2577.802,13.229688,
2576.838,14.015885,
2575.874,20.657162,
2574.910,21.939062,
2573.945,15.538671,
2572.981,12.344662,
2572.017,16.330078,
2571.053,17.808073,
2570.088,12.427474,
2569.124,9.6746092,
2568.160,13.419662,
2567.196,14.890625,
2566.232,11.064713,
2565.267,8.5626307,
2564.303,10.440104,
2563.339,13.090364,
2562.375,14.555599,
2561.410,14.969141,
2560.446,11.005339,
2559.482,5.8789063,
2558.518,8.896615,
2557.553,13.008854,
2556.589,6.7992187,
2555.625,-1.163802,
2554.661,0.15039063,
2553.697,5.773828,
2552.732,10.638412,
2551.768,13.557292,
2550.804,12.04375,
2549.840,7.8970051,
2548.875,9.8091145,
2547.911,17.927734,
2546.947,20.225521,
2545.983,14.52513,
2545.018,11.920963,
2544.054,14.703776,
2543.090,18.185677,
2542.126,21.470833,
2541.161,20.859766,
2540.197,14.23112,
2539.233,5.6759114,
2538.269,-0.95039064,
2537.305,-3.7667968,
2536.340,0.20911458,
2535.376,6.5272136,
2534.412,10.354167,
2533.448,13.711849,
2532.483,14.344531,
2531.519,12.222136,
2530.555,7.5425782,
2529.591,1.5800781,
2528.626,-2.3513021,
2527.662,-2.6070313,
2526.698,0.71067709,
2525.734,5.8967447,
2524.770,10.902474,
2523.805,14.392969,
2522.841,13.701172,
2521.877,9.7406254,
2520.913,7.2858071,
2519.948,6.6467447,
2518.984,7.6225262,
2518.020,9.0809898,
2517.056,9.4449215,
2516.091,8.9851561,
2515.127,8.6113281,
2514.163,9.1563807,
2513.199,9.9102869,
2512.234,8.4824219,
2511.270,5.7699218,
2510.306,4.5872397,
2509.342,3.3949218,
2508.378,2.6067708,
2507.413,3.6260417,
2506.449,5.9395833,
2505.485,8.661068,
2504.521,10.797396,
2503.556,10.245703,
2502.592,3.9063802,
2501.628,-4.9067707,
2500.664,-7.0411458,
2499.699,-2.9425781,
2498.735,-1.6179688,
2497.771,-3.4705729,
2496.807,-5.5446615,
2495.842,-7.9250002,
2494.878,-3.0643229,
2493.914,9.0821619,
2492.950,14.717578,
2491.986,10.521093,
2491.021,5.8908854,
2490.057,6.0326824,
2489.093,6.3476563,
2488.129,3.407552,
2487.164,-1.5639323,
2486.200,-8.3777342,
2485.236,-13.684375,
2484.272,-8.6165361,
2483.307,-0.30156249,
2482.343,-1.0554688,
2481.379,-5.1108074,
2480.415,-5.4233074,
2479.451,-2.4358072,
2478.486,2.1061199,
2477.522,6.5790362,
2476.558,7.6298175,
2475.594,4.9447918,
2474.629,1.3707031,
2473.665,-2.3371093,
2472.701,-5.586328,
2471.737,-8.9813805,
2470.772,-7.3752604,
2469.808,1.0635417,
2468.844,6.4710937,
2467.880,5.1024737,
2466.915,1.3595052,
2465.951,-1.7505208,
2464.987,-3.8109374,
2464.023,-4.3416667,
2463.059,-4.0432291,
2462.094,-2.4626303,
2461.130,-0.09791667,
2460.166,-1.1436198,
2459.202,-3.7993491,
2458.237,-1.8022135,
2457.273,1.8359375,
2456.309,2.633203,
2455.345,0.98333335,
2454.380,-3.7290366,
2453.416,-10.358854,
2452.452,-13.523046,
2451.488,-11.320182,
2450.524,-9.197917,
2449.559,-9.3475256,
2448.595,-7.1557293,
2447.631,-1.0153645,
2446.667,3.1884115,
2445.702,2.5058594,
2444.738,0.96315104,
2443.774,1.1214844,
2442.810,1.8229166,
2441.845,0.90312499,
2440.881,-1.1407552,
2439.917,-1.7998698,
2438.953,-0.60338539,
2437.988,1.3061198,
2437.024,3.2731771,
2436.060,4.4967446,
2435.096,5.465755,
2434.132,8.271615,
2433.167,12.360156,
2432.203,15.304167,
2431.239,17.320963,
2430.275,14.402604,
2429.310,5.7424479,
2428.346,1.6578125,
2427.382,8.3222656,
2426.418,13.542188,
2425.453,7.7037759,
2424.489,1.6570313,
2423.525,5.7234373,
2422.561,12.140885,
2421.597,11.519401,
2420.632,7.2890625,
2419.668,2.2472656,
2418.704,-1.7316406,
2417.740,-0.80403644,
2416.775,3.6148438,
2415.811,5.2654948,
2414.847,2.7138021,
2413.883,0.89505208,
2412.918,1.5096354,
2411.954,1.3570312,
2410.990,-0.171875,
2410.026,0.50885415,
2409.061,4.0555987,
2408.097,6.0458331,
2407.133,4.754427,
2406.169,3.8585937,
2405.205,6.002604,
2404.240,8.4295568,
2403.276,8.06849,
2402.312,6.015625,
2401.348,2.4760416,
2400.383,-2.0910156,
2399.419,-2.3585937,
2398.455,-0.515625,
2397.491,-0.41145834,
2396.526,0.24309896,
2395.562,-1.2630209,
2394.598,-4.2795572,
2393.634,-2.5894532,
2392.670,3.0660157,
2391.705,3.8516927,
2390.741,-3.0990884,
2389.777,-8.5282555,
2388.813,-6.4289064,
2387.848,-3.6572917,
2386.884,-5.257422,
2385.920,-6.6084638,
2384.956,-3.2170572,
2383.991,1.4945313,
2383.027,3.5291667,
2382.063,2.9884114,
2381.099,0.84765625,
2380.134,-1.1964843,
2379.170,-2.4095051,
2378.206,-2.9291666,
2377.242,-2.1033854,
2376.278,0.17682292,
2375.313,0.921875,
2374.349,-0.92239583,
2373.385,-0.74309897,
2372.421,2.4981771,
2371.456,5.4415364,
2370.492,8.4100256,
2369.528,9.3292971,
2368.564,5.4695311,
2367.599,0.21979167,
2366.635,-2.3932292,
2365.671,-2.6109376,
2364.707,-1.9240886,
2363.743,-1.8238281,
2362.778,-3.1412761,
2361.814,-4.3244791,
2360.850,-2.3328125,
2359.886,2.758724,
2358.921,5.1687498,
2357.957,3.9891927,
2356.993,1.9967448,
2356.029,1.2108073,
2355.064,0.87760419,
2354.100,-0.86106771,
2353.136,-3.5743489,
2352.172,-3.9768229,
2351.207,-1.3826823,
2350.243,1.8270833,
2349.279,5.4039063,
2348.315,10.435938,
2347.351,14.655599,
2346.386,11.732422,
2345.422,6.0449219,
2344.458,-0.26679689,
2343.494,-6.708724,
2342.529,-6.7365885,
2341.565,0.2563802,
2340.601,4.4361978,
2339.637,0.28645834,
2338.672,-4.4049478,
2337.708,-4.1917968,
2336.744,-3.4282553,
2335.780,-5.1104169,
2334.816,-7.4223957,
2333.851,-7.8678384,
2332.887,-7.3562498,
2331.923,-7.638021,
2330.959,-6.7492189,
2329.994,-1.0320313,
2329.030,5.7072916,
2328.066,3.3947916,
2327.102,-7.0057292,
2326.137,-10,
2325.173,-1.5015625,
2324.209,2.4942708,
2323.245,-3.883724,
2322.280,-7.4256511,
2321.316,-3.0884116,
2320.352,0.10338542,
2319.388,-2.1165364,
2318.424,-3.6678386,
2317.459,0.47864583,
2316.495,5.526823,
2315.531,5.5335937,
2314.567,2.8196614,
2313.602,-0.30338541,
2312.638,-5.3015623,
2311.674,-10.617839,
2310.710,-15.623178,
2309.745,-15.03737,
2308.781,-5.8234377,
2307.817,2.3217447,
2306.853,3.6968751,
2305.889,2.4270833,
2304.924,2.5960937,
2303.960,3.146224,
2302.996,2.5046875,
2302.032,1.7940104,
2301.067,1.921875,
2300.103,-0.055598959,
2299.139,-9.0130205,
2298.175,-19.827084,
2297.210,-12.085807,
2296.246,8.1804686,
2295.282,10.310938,
2294.318,-2.7536459,
2293.353,-9.9489584,
2292.389,-6.4484377,
2291.425,-3.0945313,
2290.461,-5.5035157,
2289.497,-7.773828,
2288.532,-5.4822917,
2287.568,-2.7359376,
2286.604,-4.3635416,
2285.640,-7.6535158,
2284.675,-6.0300779,
2283.711,-1.2798177,
2282.747,0.16054687,
2281.783,-0.0067708334,
2280.818,0.80143231,
2279.854,2.1884115,
2278.890,4.3208332,
2277.926,7.5709634,
2276.962,8.0158854,
2275.997,1.5981771,
2275.033,-5.6464844,
2274.069,-6.0678387,
2273.105,-4.2565103,
2272.140,-5.6776042,
2271.176,-8.942318,
2270.212,-13.436588,
2269.248,-17.389193,
2268.283,-15.514713,
2267.319,-9.6751299,
2266.355,-5.9907551,
2265.391,-5.9574218,
2264.426,-6.7147136,
2263.462,-6.809505,
2262.498,-7.5632811,
2261.534,-10.346094,
2260.570,-12.586458,
2259.605,-11.538671,
2258.641,-10.876953,
2257.677,-13.278776,
2256.713,-14.097526,
2255.748,-8.2678385,
2254.784,0.23164062,
2253.820,3.3136718,
2252.856,0.77460939,
2251.891,-1.4385417,
2250.927,-1.5126302,
2249.963,-2.6226563,
2248.999,-5.6182294,
2248.035,-5.9838543,
2247.070,0.053255208,
2246.106,5.2932291,
2245.142,2.4696615,
2244.178,-2.1247396,
2243.213,-2.9334636,
2242.249,-1.2997396,
2241.285,0.46653646,
2240.321,1.3173177,
2239.356,1.4053385,
2238.392,0.92343748,
2237.428,-1.43125,
2236.464,-6.2363281,
2235.499,-10.624609,
2234.535,-12.930079,
2233.571,-11.502734,
2232.607,-4.5005207,
2231.643,0.089062497,
2230.678,-4.471745,
2229.714,-11.132682,
2228.750,-12.020964,
2227.786,-7.9410157,
2226.821,-3.1632812,
2225.857,0.48867187,
2224.893,2.7739584,
2223.929,4.2485676,
2222.964,6.898828,
2222.000,10.989714,
2221.036,10.800261,
2220.072,3.5332031,
2219.108,-3.1031251,
2218.143,-4.9415364,
2217.179,-4.2729168,
2216.215,-2.1145833,
2215.251,0.38177082,
2214.286,1.9371094,
2213.322,3.2088542,
2212.358,4.9260416,
2211.394,6.158854,
2210.429,6.2141929,
2209.465,4.7337241,
2208.501,2.3091147,
2207.537,0.87721354,
2206.572,3.0522134,
2205.608,9.203516,
2204.644,13.69414,
2203.680,11.736197,
2202.716,6.6035156,
2201.751,3.782552,
2200.787,3.5438802,
2199.823,3.4436197,
2198.859,3.3554688,
2197.894,5.4966145,
2196.930,10.516016,
2195.966,15.180079,
2195.002,17.967188,
2194.037,16.65052,
2193.073,9.3627605,
2192.109,2.5834634,
2191.145,1.773698,
2190.180,4.4721355,
2189.216,7.4820313,
2188.252,10.00612,
2187.288,10.980338,
2186.324,10.470703,
2185.359,10.99375,
2184.395,12.802214,
2183.431,12.583073,
2182.467,9.7250004,
2181.502,7.9678388,
2180.538,8.6964846,
2179.574,12.646484,
2178.610,20.180208,
2177.645,24.495573,
2176.681,19.480598,
2175.717,11.455859,
2174.753,11.154688,
2173.789,16.822266,
2172.824,17.622786,
2171.860,12.613933,
2170.896,11.464192,
2169.932,16.119923,
2168.967,17.815235,
2168.003,13.727604,
2167.039,8.9286461,
2166.075,6.5742188,
2165.110,6.8809896,
2164.146,8.3089848,
2163.182,8.5979166,
2162.218,6.7095051,
2161.253,4.632422,
2160.289,6.6251302,
2159.325,13.326563,
2158.361,19.915754,
2157.397,23.475,
2156.432,23.304817,
2155.468,18.963411,
2154.504,13.370442,
2153.540,8.5281248,
2152.575,7.1893229,
2151.611,12.749479,
2150.647,19.901823,
2149.683,19.926172,
2148.718,13.777995,
2147.754,9.3239584,
2146.790,8.816927,
2145.826,9.6942711,
2144.862,10.813412,
2143.897,12.134375,
2142.933,14.835417,
2141.969,17.476692,
2141.005,17.298828,
2140.040,16.931902,
2139.076,19.358204,
2138.112,22.48073,
2137.148,21.689062,
2136.183,17.451954,
2135.219,16.082552,
2134.255,19.517448,
2133.291,20.704296,
2132.326,15.770443,
2131.362,10.583854,
2130.398,9.2686195,
2129.434,9.1635418,
2128.470,8.2588539,
2127.505,6.9053388,
2126.541,6.1630206,
2125.577,4.8739581,
2124.613,-1.0334636,
2123.648,-10.104557,
2122.684,-13.629948,
2121.720,-8.2631512,
2120.756,-1.9497396,
2119.791,1.7191406,
2118.827,6.6708331,
2117.863,11.044271,
2116.899,12.639193,
2115.935,10.857422,
2114.970,6.7787762,
2114.006,2.8559897,
2113.042,0.5404948,
2112.078,-2.0673177,
2111.113,-5.8143229,
2110.149,-5.3428388,
2109.185,1.586849,
2108.221,6.3864584,
2107.256,2.2542968,
2106.292,-2.1109376,
2105.328,1.9268229,
2104.364,8.8824215,
2103.399,8.4311199,
2102.435,2.25,
2101.471,-0.75690103,
2100.507,-0.39140624,
2099.543,-2.7438803,
2098.578,-7.7977862,
2097.614,-11.014844,
2096.650,-11.207292,
2095.686,-8.5967445,
2094.721,-2.4126303,
2093.757,1.9432292,
2092.793,-5.6944013,
2091.829,-18.424479,
2090.864,-16.622265,
2089.900,-5.4994793,
2088.936,-0.11028646,
2087.972,1.1967448,
2087.008,1.8671875,
2086.043,3.2194011,
2085.079,3.4539063,
2084.115,0.11171875,
2083.151,-3.6471355,
2082.186,-0.80260414,
2081.222,5.6765623,
2080.258,6.1695313,
2079.294,3.4239583,
2078.329,2.7761719,
2077.365,1.9740885,
2076.401,2.1424479,
2075.437,3.5273438,
2074.472,2.6322916,
2073.508,-1.0859375,
2072.544,-3.7072916,
2071.580,-2.5860677,
2070.616,-0.35559896,
2069.651,-0.98372394,
2068.687,-3.9419272,
2067.723,-6.3531251,
2066.759,-6.9589844,
2065.794,-4.7641926,
2064.830,-0.59973961,
2063.866,1.955599,
2062.902,2.2847657,
2061.937,0.065234378,
2060.973,-6.3428388,
2060.009,-12.200391,
2059.045,-11.410808,
2058.081,-6.0565104,
2057.116,-1.5382812,
2056.152,0.11757813,
2055.188,-2.6630208,
2054.224,-9.9777346,
2053.259,-11.915495,
2052.295,-0.59257811,
2051.331,10.936068,
2050.367,8.6091146,
2049.402,1.039323,
2048.438,-1.7845052,
2047.474,-0.83359373,
2046.510,-0.04700521,
2045.545,-0.34361979,
2044.581,2.6691406,
2043.617,9.9861975,
2042.653,14.541797,
2041.689,12.07513,
2040.724,9.8108072,
2039.760,12.448047,
2038.796,15.138672,
2037.832,9.4388018,
2036.867,-1.1703125,
2035.903,-3.258203,
2034.939,-1.5345052,
2033.975,-2.1891928,
2033.010,-4.4782553,
2032.046,-8.0299482,
2031.082,-12.811849,
2030.118,-14.333333,
2029.154,-8.5180988,
2028.189,-1.1971354,
2027.225,-0.71197915,
2026.261,-4.129427,
2025.297,-5.3518229,
2024.332,-4.6070313,
2023.368,-1.6747396,
2022.404,3.0858073,
2021.440,5.2222657,
2020.475,3.3539062,
2019.511,0.94010419,
2018.547,0.71080726,
2017.583,1.5673177,
2016.618,1.366927,
2015.654,0.140625,
2014.690,-1.0408854,
2013.726,-2.3070312,
2012.762,-2.3953125,
2011.797,0.00065104169,
2010.833,1.3712239,
2009.869,-0.29023439,
2008.905,-0.68294269,
2007.940,2.3526042,
2006.976,4.224349,
2006.012,-0.0022135417,
2005.048,-7.0167971,
2004.083,-7.9333334,
2003.119,-1.1346354,
2002.155,4.6707029,
2001.191,3.9472656,
2000.227,1.4476563,
1999.262,1.3132813,
1998.298,2.0485678,
1997.334,3.7481771,
1996.370,6.2022138,
1995.405,1.2009114,
1994.441,-8.7145834,
1993.477,-9.1920576,
1992.513,-0.54700524,
1991.548,3.8821614,
1990.584,0.032031249,
1989.620,-5.2930989,
1988.656,-11.491276,
1987.691,-17.784895,
1986.727,-17.435156,
1985.763,-13.540885,
1984.799,-3.8303385,
1983.835,12.747135,
1982.870,15.159245,
1981.906,4.6523438,
1980.942,-1.8088542,
1979.978,-0.41966146,
1979.013,2.3460937,
1978.049,3.0321615,
1977.085,2.0114584,
1976.121,-0.97955728,
1975.156,-4.8221354,
1974.192,-5.6311197,
1973.228,-2.7815104,
1972.264,0.47734374,
1971.300,3.0816407,
1970.335,5.2195311,
1969.371,6.025651,
1968.407,6.5247397,
1967.443,8.6808596,
1966.478,10.569792,
1965.514,7.9600263,
1964.550,1.768099,
1963.586,-2.661849,
1962.621,-3.6955729,
1961.657,-4.3630209,
1960.693,-5.0528646,
1959.729,-4.7615886,
1958.764,-4.7893229,
1957.800,-4.8221354,
1956.836,-3.8567708,
1955.872,-2.3800781,
1954.908,3.0625,
1953.943,10.971745,
1952.979,11.23151,
1952.015,3.9263022,
1951.051,1.0807291,
1950.086,9.1744795,
1949.122,17.213411,
1948.158,11.592969,
1947.194,-0.49492186,
1946.229,-1.9601562,
1945.265,3.7563803,
1944.301,3.4113281,
1943.337,-1.5704427,
1942.373,-3.2776041,
1941.408,-1.2076823,
1940.444,3.3705728,
1939.480,9.693099,
1938.516,14.204427,
1937.551,13.865104,
1936.587,11.732943,
1935.623,13.933854,
1934.659,19.994923,
1933.694,21.377604,
1932.730,13.820052,
1931.766,3.8335938,
1930.802,-3.3817708,
1929.837,-7.1337237,
1928.873,-2.536849,
1927.909,4.8507814,
1926.945,3.3691406,
1925.981,-4.5536456,
1925.016,-6.2595053,
1924.052,1.6597656,
1923.088,8.6858072,
1922.124,6.6727862,
1921.159,0.72916669,
1920.195,-3.7329428,
1919.231,-6.7152343,
1918.267,-4.1341147,
1917.302,3.3619792,
1916.338,7.895052,
1915.374,8.7828121,
1914.410,7.3996096,
1913.446,4.4402342,
1912.481,2.7132812,
1911.517,3.9291666,
1910.553,4.6427083,
1909.589,1.0842448,
1908.624,-3.3861978,
1907.660,-2.1936197,
1906.696,4.0205731,
1905.732,9.1505213,
1904.767,10.721094,
1903.803,9.0493488,
1902.839,4.6287761,
1901.875,0.80742186,
1900.910,-0.60377604,
1899.946,-0.92929685,
1898.982,-0.17356771,
1898.018,1.1394532,
1897.054,3.8092449,
1896.089,8.6111975,
1895.125,12.822917,
1894.161,12.705729,
1893.197,9.8876305,
1892.232,5.7096353,
1891.268,0.30807292,
1890.304,-0.068880208,
1889.340,3.3657553,
1888.375,4.4582033,
1887.411,4.1527343,
1886.447,1.3579427,
1885.483,-4.3873696,
1884.519,-9.9072914,
1883.554,-12.564974,
1882.590,-9.7230473,
1881.626,1.3516927,
1880.662,15.535026,
1879.697,19.844011,
1878.733,12.264193,
1877.769,8.1876307,
1876.805,16.195574,
1875.840,23.576563,
1874.876,18.427996,
1873.912,10.198177,
1872.948,9.8791666,
1871.983,12.717709,
1871.019,12.61888,
1870.055,9.8936195,
1869.091,5.7528644,
1868.127,-0.00013020834,
1867.162,-3.9752605,
1866.198,-1.2824218,
1865.234,2.5141928,
1864.270,0.13320312,
1863.305,-4.261198,
1862.341,-0.39466146,
1861.377,9.0630207,
1860.413,9.2683592,
1859.448,0.72604167,
1858.484,-4.7398438,
1857.520,-2.0591147,
1856.556,4.129427,
1855.591,7.9957032,
1854.627,8.3044271,
1853.663,6.4104166,
1852.699,2.9927084,
1851.735,-0.85755211,
1850.770,-2.6242187,
1849.806,-2.329427,
1848.842,-3.2260416,
1847.878,-3.5333333,
1846.913,3.5912759,
1845.949,12.16836,
1844.985,12.692318,
1844.021,8.2733068,
1843.056,5.9483075,
1842.092,7.4967446,
1841.128,7.3783855,
1840.164,2.1670573,
1839.200,-3.6986978,
1838.235,-4.4253907,
1837.271,-3.0039063,
1836.307,-4.8816404,
1835.343,-8.9216146,
1834.378,-7.6251302,
1833.414,0.2220052,
1832.450,8.0294275,
1831.486,12.188932,
1830.521,13.972917,
1829.557,14.691667,
1828.593,13.541927,
1827.629,9.0506506,
1826.664,2.9088542,
1825.700,-0.51380211,
1824.736,0.13450521,
1823.772,2.6015625,
1822.808,8.8527346,
1821.843,16.87435,
1820.879,14.627084,
1819.915,6.3052082,
1818.951,6.8699217,
1817.986,11.528906,
1817.022,13.736719,
1816.058,14.204557,
1815.094,12.903516,
1814.129,8.4529943,
1813.165,4.7916665,
1812.201,8.1631508,
1811.237,15.513151,
1810.273,17.878256,
1809.308,14.402344,
1808.344,11.323958,
1807.380,11.452213,
1806.416,12.572135,
1805.451,12.528906,
1804.487,12.406119,
1803.523,14.815625,
1802.559,18.466927,
1801.594,20.302343,
1800.630,19.946615,
1799.666,18.952734,
1798.702,18.329687,
1797.737,18.215885,
1796.773,19.497917,
1795.809,22.167969,
1794.845,23.557812,
1793.881,23.556641,
1792.916,22.941536,
1791.952,20.642578,
1790.988,18.475521,
1790.024,18.721615,
1789.059,18.351433,
1788.095,13.660417,
1787.131,8.505599,
1786.167,10.210417,
1785.202,17.56953,
1784.238,20.763933,
1783.274,15.740755,
1782.310,10.838021,
1781.346,12.353516,
1780.381,15.838802,
1779.417,17.146093,
1778.453,17.522005,
1777.489,17.052996,
1776.524,16.097136,
1775.560,19.65638,
1774.596,27.945833,
1773.632,32.295181,
1772.667,28.09948,
1771.703,22.68125,
1770.739,25.245443,
1769.775,34.334244,
1768.810,41.595314,
1767.846,43.613804,
1766.882,42.719009,
1765.918,40.386978,
1764.954,38.358852,
1763.989,40.629559,
1763.025,46.359116,
1762.061,51.270573,
1761.097,54.698696,
1760.132,58.743752,
1759.168,63.158985,
1758.204,63.607033,
1757.240,59.477863,
1756.275,58.722527,
1755.311,67.682159,
1754.347,80.200264,
1753.383,87.715622,
1752.419,91.475128,
1751.454,96.309242,
1750.490,103.43555,
1749.526,112.42982,
1748.562,122.10742,
1747.597,129.87982,
1746.633,134.7,
1745.669,140.12279,
1744.705,151.52174,
1743.740,170.46588,
1742.776,195.15105,
1741.812,223.89427,
1740.848,253.1983,
1739.883,280.32928,
1738.919,311.08176,
1737.955,352.09402,
1736.991,399.4556,
1736.027,448.61484,
1735.062,499.52475,
1734.098,549.25104,
1733.134,598.5224,
1732.170,649.15393,
1731.205,700.66248,
1730.241,752.33435,
1729.277,804.20782,
1728.313,855.85822,
1727.348,904.9021,
1726.384,950.69751,
1725.420,1001.1241,
1724.456,1063.561,
1723.492,1127.1719,
1722.527,1164.6898,
1721.563,1184.0519,
1720.599,1204.9432,
1719.635,1228.5524,
1718.670,1253.0834,
1717.706,1276.4412,
1716.742,1295.2445,
1715.778,1307.3706,
1714.813,1313.2906,
1713.849,1312.9305,
1712.885,1303.4945,
1711.921,1275.1263,
1710.956,1221.2542,
1709.992,1141.1136,
1709.028,1029.7507,
1708.064,899.18304,
1707.100,776.14819,
1706.135,651.49139,
1705.171,542.26874,
1704.207,450.26108,
1703.243,373.89194,
1702.278,311.14584,
1701.314,261.27866,
1700.350,224.56822,
1699.386,196.88072,
1698.421,168.53281,
1697.457,141.92422,
1696.493,124.44362,
1695.529,116.54102,
1694.565,108.20664,
1693.600,93.01107,
1692.636,79.155472,
1691.672,74.670311,
1690.708,76.908073,
1689.743,78.092445,
1688.779,75.754814,
1687.815,71.852997,
1686.851,66.847397,
1685.886,61.498569,
1684.922,58.666275,
1683.958,58.073437,
1682.994,58.382813,
1682.029,59.973045,
1681.065,59.915627,
1680.101,56.587109,
1679.137,51.346485,
1678.173,45.366276,
1677.208,40.214973,
1676.244,38.752213,
1675.280,41.013149,
1674.316,45.156773,
1673.351,49.727345,
1672.387,53.295181,
1671.423,54.410809,
1670.459,53.814713,
1669.494,49.982944,
1668.530,44.141407,
1667.566,38.504559,
1666.602,32.200783,
1665.638,27.042187,
1664.673,23.716406,
1663.709,22.429688,
1662.745,23.415754,
1661.781,27.020834,
1660.816,33.451824,
1659.852,40.284897,
1658.888,41.639713,
1657.924,34.765102,
1656.959,26.994923,
1655.995,26.969791,
1655.031,30.048828,
1654.067,32.032551,
1653.102,35.534115,
1652.138,35.266148,
1651.174,30.73711,
1650.210,29.898308,
1649.246,33.643101,
1648.281,39.276562,
1647.317,46.364063,
1646.353,53.115887,
1645.389,54.700912,
1644.424,50.28138,
1643.460,45.814453,
1642.496,45.577866,
1641.532,47.193882,
1640.567,52.140625,
1639.603,59.770313,
1638.639,57.955467,
1637.675,49.230858,
1636.711,51.14323,
1635.746,61.218227,
1634.782,69.96875,
1633.818,75.274086,
1632.854,79.27005,
1631.889,83.220184,
1630.925,88.242836,
1629.961,96.185028,
1628.997,107.58633,
1628.032,120.83086,
1627.068,135.85156,
1626.104,152.82253,
1625.140,172.02812,
1624.175,195.05573,
1623.211,230.35378,
1622.247,273.47864,
1621.283,334.51706,
1620.319,414.75131,
1619.354,527.45367,
1618.390,680.55481,
1617.426,883.112,
1616.462,1150.1613,
1615.497,1478.6261,
1614.533,1845.2922,
1613.569,2231.397,
1612.605,2602.4482,
1611.640,2855.0229,
1610.676,3024.5374,
1609.712,2976.2048,
1608.748,2768.1985,
1607.784,2523.9214,
1606.819,2221.6228,
1605.855,1915.4324,
1604.891,1624.459,
1603.927,1358.9395,
1602.962,1135.4373,
1601.998,950.89716,
1601.034,794.25769,
1600.070,662.36017,
1599.105,555.44531,
1598.141,466.72186,
1597.177,395.91888,
1596.213,330.27109,
1595.248,276.13345,
1594.284,238.24297,
1593.320,214.9711,
1592.356,187.9556,
1591.392,155.59206,
1590.427,127.48528,
1589.463,109.57461,
1588.499,99.746613,
1587.535,93.567711,
1586.570,89.201691,
1585.606,86.466019,
1584.642,84.702995,
1583.678,82.857941,
1582.713,74.201172,
1581.749,62.802475,
1580.785,58.480209,
1579.821,56.697525,
1578.857,53.635418,
1577.892,50.595963,
1576.928,51.510807,
1575.964,57.46328,
1575.000,62.990364,
1574.035,61.673569,
1573.071,54.95052,
1572.107,51.029297,
1571.143,53.930077,
1570.178,57.038673,
1569.214,52.938282,
1568.250,44.618359,
1567.286,36.586849,
1566.321,28.291666,
1565.357,24.858463,
1564.393,25.344921,
1563.429,25.33099,
1562.465,23.752214,
1561.500,21.522655,
1560.536,18.87435,
1559.572,15.748828,
1558.608,12.689062,
1557.643,10.092318,
1556.679,7.4194012,
1555.715,4.3851562,
1554.751,2.0955729,
1553.786,4.6781249,
1552.822,11.37526,
1551.858,16.712761,
1550.894,20.258463,
1549.929,21.067057,
1548.965,18.30625,
1548.001,14.179427,
1547.037,12.04362,
1546.073,11.912109,
1545.108,10.440365,
1544.144,6.0337238,
1543.180,1.2259115,
1542.216,-1.428776,
1541.251,-1.4488281,
1540.287,3.3787761,
1539.323,9.7911463,
1538.359,8.4816408,
1537.394,0.5355469,
1536.430,-3.5901041,
1535.466,-1.0757812,
1534.502,1.5889323,
1533.538,-0.39479166,
1532.573,-4.1908855,
1531.609,-4.0833335,
1530.645,0.81380206,
1529.681,5.0492187,
1528.716,3.9124999,
1527.752,0.24505208,
1526.788,-3.3609376,
1525.824,-6.4490886,
1524.859,-8.2375002,
1523.895,-8.4592447,
1522.931,-4.8023438,
1521.967,3.3393228,
1521.002,9.3138018,
1520.038,5.5102863,
1519.074,-2.4894531,
1518.110,-3.694401,
1517.146,1.7373698,
1516.181,5.4675779,
1515.217,5.4540362,
1514.253,4.3828125,
1513.289,2.3005209,
1512.324,-0.12434896,
1511.360,-1.1710937,
1510.396,-1.0817708,
1509.432,-0.66992188,
1508.467,0.54062498,
1507.503,2.4141927,
1506.539,2.4975259,
1505.575,0.421875,
1504.611,-1.2576823,
1503.646,-2.470052,
1502.682,-3.3949218,
1501.718,-2.6303384,
1500.754,0.63085938,
1499.789,5.5871096,
1498.825,9.3713541,
1497.861,7.9213543,
1496.897,1.711849,
1495.932,-1.2315104,
1494.968,5.8317709,
1494.004,15.141406,
1493.040,13.128255,
1492.075,6.103776,
1491.111,7.4625001,
1490.147,12.115625,
1489.183,14.848568,
1488.219,14.969791,
1487.254,12.38776,
1486.290,7.3895831,
1485.326,2.5479167,
1484.362,1.5010417,
1483.397,4.8472657,
1482.433,9.167057,
1481.469,12.64388,
1480.505,16.258463,
1479.540,21.920443,
1478.576,30.968229,
1477.612,34.082943,
1476.648,31.371223,
1475.684,29.342838,
1474.719,30.102865,
1473.755,33.58802,
1472.791,40.074089,
1471.827,47.982552,
1470.862,52.603645,
1469.898,51.406773,
1468.934,49.933464,
1467.970,54.922398,
1467.005,62.572655,
1466.041,69.342705,
1465.077,75.874611,
1464.113,82.52565,
1463.148,90.00872,
1462.184,99.99427,
1461.220,112.4306,
1460.256,124.69883,
1459.292,134.43411,
1458.327,142.47552,
1457.363,151.53619,
1456.399,163.05963,
1455.435,174.55365,
1454.470,184.29713,
1453.506,191.64505,
1452.542,191.76289,
1451.578,185.65729,
1450.613,178.88451,
1449.649,172.78854,
1448.685,166.04337,
1447.721,160.3754,
1446.757,155.8987,
1445.792,152.13776,
1444.828,148.44856,
1443.864,145.80807,
1442.900,145.37721,
1441.935,144.86015,
1440.971,141.70039,
1440.007,139.00221,
1439.043,142.28073,
1438.078,149.92409,
1437.114,151.77643,
1436.150,141.34636,
1435.186,127.54649,
1434.221,121.18633,
1433.257,119.03516,
1432.293,111.85963,
1431.329,100.11276,
1430.365,87.941666,
1429.400,77.049736,
1428.436,68.100388,
1427.472,61.342838,
1426.508,56.480209,
1425.543,52.926823,
1424.579,50.20052,
1423.615,46.800652,
1422.651,40.556511,
1421.686,34.98008,
1420.722,34.760025,
1419.758,36.928387,
1418.794,37.35651,
1417.830,36.761719,
1416.865,37.990623,
1415.901,42.008335,
1414.937,48.557941,
1413.973,58.353645,
1413.008,71.123047,
1412.044,82.572266,
1411.080,89.018753,
1410.116,94.986588,
1409.151,103.97942,
1408.187,114.39531,
1407.223,120.56419,
1406.259,120.6793,
1405.294,115.78841,
1404.330,106.98594,
1403.366,94.481117,
1402.402,78.285027,
1401.438,60.947655,
1400.473,55.081642,
1399.509,58.353645,
1398.545,60.541145,
1397.581,60.128124,
1396.616,60.583462,
1395.652,63.11237,
1394.688,66.221611,
1393.724,68.127213,
1392.759,68.22982,
1391.795,66.641273,
1390.831,63.804165,
1389.867,62.448307,
1388.903,64.829033,
1387.938,67.684502,
1386.974,69.909767,
1386.010,70.992836,
1385.046,70.804947,
1384.081,70.462761,
1383.117,70.834503,
1382.153,71.169273,
1381.189,70.369011,
1380.224,69.719528,
1379.260,71.804947,
1378.296,74.041924,
1377.332,72.949219,
1376.367,70.745834,
1375.403,71.415108,
1374.439,74.418358,
1373.475,73.788803,
1372.511,67.117188,
1371.546,58.912498,
1370.582,52.712238,
1369.618,46.912762,
1368.654,41.798698,
1367.689,38.896614,
1366.725,37.48698,
1365.761,36.731121,
1364.797,36.941017,
1363.832,39.561199,
1362.868,44.289452,
1361.904,45.950912,
1360.940,39.74453,
1359.976,30.703125,
1359.011,24.711067,
1358.047,16.895964,
1357.083,11.75625,
1356.119,9.6596355,
1355.154,10.290885,
1354.190,13.355338,
1353.226,16.928385,
1352.262,19.013672,
1351.297,19.31875,
1350.333,18.445704,
1349.369,15.415885,
1348.405,10.235026,
1347.440,6.4923177,
1346.476,3.8682292,
1345.512,2.7644532,
1344.548,3.1743491,
1343.584,6.5852866,
1342.619,12.899219,
1341.655,17.11302,
1340.691,13.814584,
1339.727,6.038672,
1338.762,3.1425781,
1337.798,7.9946613,
1336.834,12.341928,
1335.870,13.108594,
1334.905,13.482031,
1333.941,13.771224,
1332.977,13.726171,
1332.013,16.322916,
1331.049,23.601692,
1330.084,31.477083,
1329.120,34.859116,
1328.156,37.999348,
1327.192,39.585938,
1326.227,38.415104,
1325.263,39.517578,
1324.299,44.610939,
1323.335,52.131641,
1322.370,60.169533,
1321.406,67.586067,
1320.442,73.169273,
1319.478,75.45195,
1318.513,76.169403,
1317.549,81.969528,
1316.585,92.873955,
1315.621,105.71719,
1314.657,118.67097,
1313.692,131.76237,
1312.728,145.5918,
1311.764,159.20209,
1310.800,171.36067,
1309.835,183.80182,
1308.871,199.84935,
1307.907,219.09193,
1306.943,236.72461,
1305.978,252.33841,
1305.014,267.76746,
1304.050,282.25012,
1303.086,295.63593,
1302.122,309.14178,
1301.157,323.31186,
1300.193,335.69049,
1299.229,342.67957,
1298.265,346.01251,
1297.300,364.59766,
1296.336,393.80273,
1295.372,423.14597,
1294.408,449.29376,
1293.443,475.35312,
1292.479,505.54245,
1291.515,540.01849,
1290.551,573.37946,
1289.586,600.48462,
1288.622,621.84491,
1287.658,633.99182,
1286.694,639.81378,
1285.730,650.92657,
1284.765,669.02112,
1283.801,687.63983,
1282.837,701.88306,
1281.873,710.28699,
1280.908,710.59113,
1279.944,704.52069,
1278.980,701.46716,
1278.016,705.4198,
1277.051,707.22137,
1276.087,699.375,
1275.123,684.33673,
1274.159,668.53345,
1273.195,653.19586,
1272.230,632.59216,
1271.266,602.66718,
1270.302,568.48492,
1269.338,531.19794,
1268.373,489.47787,
1267.409,448.21393,
1266.445,406.04269,
1265.481,364.47931,
1264.516,324.77902,
1263.552,288.60678,
1262.588,259.18256,
1261.624,237.27982,
1260.659,217.05911,
1259.695,193.82904,
1258.731,174.37669,
1257.767,163.15781,
1256.803,156.17773,
1255.838,145.5392,
1254.874,129.52969,
1253.910,112.01159,
1252.946,94.623695,
1251.981,77.202477,
1251.017,70.467056,
1250.053,70.967972,
1249.089,69.748955,
1248.124,66.228386,
1247.160,62.490757,
1246.196,59.457031,
1245.232,56.124348,
1244.268,51.009506,
1243.303,43.984116,
1242.339,37.517838,
1241.375,36.665363,
1240.411,38.151043,
1239.446,35.957161,
1238.482,30.648176,
1237.518,27.337761,
1236.554,27.898438,
1235.589,29.208073,
1234.625,27.970182,
1233.661,24.609896,
1232.697,17.759375,
1231.732,7.8911457,
1230.768,1.078125,
1229.804,0.70572919,
1228.840,2.8670573,
1227.876,1.2686198,
1226.911,-6.148828,
1225.947,-14.936198,
1224.983,-19.284506,
1224.019,-19.393881,
1223.054,-14.808333,
1222.090,-7.0789061,
1221.126,-4.4812498,
1220.162,-7.4718752,
1219.197,-11.385547,
1218.233,-12.360026,
1217.269,-9.9102869,
1216.305,-5.1691408,
1215.340,0.53046876,
1214.376,3.396224,
1213.412,1.4592448,
1212.448,-2.6630208,
1211.484,-6.2072916,
1210.519,-8.1884117,
1209.555,-8.7397137,
1208.591,-8.3631506,
1207.627,-7.6460938,
1206.662,-7.0067706,
1205.698,-7.1753907,
1204.734,-3.8697917,
1203.770,2.890625,
1202.805,7.0207033,
1201.841,5.697526,
1200.877,1.368099,
1199.913,-1.5587239,
1198.949,-1.3967448,
1197.984,0.56901044,
1197.020,5.461328,
1196.056,10.9375,
1195.092,12.501432,
1194.127,12.97539,
1193.163,17.455078,
1192.199,25.988672,
1191.235,31.78763,
1190.270,28.057423,
1189.306,20.306641,
1188.342,22.095442,
1187.378,33.276562,
1186.413,46.026691,
1185.449,56.489975,
1184.485,65.777344,
1183.521,76.506248,
1182.557,89.534637,
1181.592,102.99857,
1180.628,115.06159,
1179.664,127.60547,
1178.700,143.01367,
1177.735,159.93399,
1176.771,171.94701,
1175.807,178.84714,
1174.843,182.81979,
1173.878,184.88853,
1172.914,184.40781,
1171.950,181.3026,
1170.986,176.08008,
1170.022,164.47852,
1169.057,144.77565,
1168.093,124.01653,
1167.129,109.93385,
1166.165,100.95872,
1165.200,88.068489,
1164.236,65.731903,
1163.272,41.581249,
1162.308,28.68112,
1161.343,20.170443,
1160.379,13.399349,
1159.415,7.9100261,
1158.451,3.9992187,
1157.486,2.3731771,
1156.522,2.4151042,
1155.558,0.55351561,
1154.594,-4.3036456,
1153.630,-8.224349,
1152.665,-9.5026045,
1151.701,-9.1322918,
1150.737,-7.1876302,
1149.773,-3.6548178,
1148.808,1.1635417,
1147.844,6.5912762,
1146.880,11.217578,
1145.916,9.6268225,
1144.951,5.1664062,
1143.987,2.8895833,
1143.023,2.3221354,
1142.059,4.3954425,
1141.095,9.0249996,
1140.130,14.817318,
1139.166,20.505598,
1138.202,25.995703,
1137.238,29.71224,
1136.273,29.374088,
1135.309,28.43099,
1134.345,32.636978,
1133.381,42.071484,
1132.416,51.845963,
1131.452,57.938282,
1130.488,62.462368,
1129.524,68.933334,
1128.559,75.269791,
1127.595,82.855339,
1126.631,92.339066,
1125.667,102.66029,
1124.703,113.08672,
1123.738,123.49323,
1122.774,133.95209,
1121.810,144.34323,
1120.846,156.41562,
1119.881,171.81445,
1118.917,186.89948,
1117.953,196.73138,
1116.989,202.75821,
1116.024,212.2625,
1115.060,230.38359,
1114.096,251.10638,
1113.132,260.23373,
1112.168,264.72488,
1111.203,269.61444,
1110.239,273.06876,
1109.275,274.70285,
1108.311,274.89374,
1107.346,274.36105,
1106.382,274.18073,
1105.418,275.98801,
1104.454,281.67084,
1103.489,291.31577,
1102.525,302.34674,
1101.561,310.14688,
1100.597,313.22552,
1099.632,309.27176,
1098.668,295.7215,
1097.704,277.35168,
1096.740,275.07358,
1095.776,280.93085,
1094.811,281.51746,
1093.847,276.4953,
1092.883,267.85507,
1091.919,256.88242,
1090.954,244.25365,
1089.990,231.0556,
1089.026,218.04648,
1088.062,202.92343,
1087.097,185.75456,
1086.133,167.84975,
1085.169,151.03476,
1084.205,135.68581,
1083.241,120.89805,
1082.276,105.79765,
1081.312,90.463669,
1080.348,81.058983,
1079.384,75.293488,
1078.419,68.236458,
1077.455,59.499218,
1076.491,51.919399,
1075.527,48.562241,
1074.562,49.350651,
1073.598,49.522007,
1072.634,42.385025,
1071.670,32.64349,
1070.705,25.673178,
1069.741,20.250261,
1068.777,16.433332,
1067.813,15.482813,
1066.849,17.494011,
1065.884,19.775652,
1064.920,22.472656,
1063.956,24.878906,
1062.992,26.427996,
1062.027,28.110157,
1061.063,30.952864,
1060.099,34.020832,
1059.135,34.657551,
1058.170,31.234505,
1057.206,27.244141,
1056.242,26.88125,
1055.278,27.861589,
1054.314,29.149088,
1053.349,30.448177,
1052.385,30.228516,
1051.421,26.718229,
1050.457,21.33086,
1049.492,20.153515,
1048.528,20.910418,
1047.564,17.481771,
1046.600,9.9993486,
1045.635,5.2589846,
1044.671,9.3800783,
1043.707,21.593229,
1042.743,32.937241,
1041.778,34.997917,
1040.814,34.584244,
1039.850,36.63776,
1038.886,38.936069,
1037.922,37.794662,
1036.957,32.618099,
1035.993,27.38151,
1035.029,27.846745,
1034.065,30.586329,
1033.100,31.949739,
1032.136,33.496094,
1031.172,34.738022,
1030.208,35.114323,
1029.243,34.927082,
1028.279,35.246353,
1027.315,36.714455,
1026.351,37.099869,
1025.387,34.050259,
1024.422,30.797525,
1023.458,30.525391,
1022.494,32.230991,
1021.530,32.750782,
1020.565,30.254818,
1019.601,26.76927,
1018.637,25.68125,
1017.673,25.599871,
1016.708,25.961329,
1015.744,26.835287,
1014.780,27.098959,
1013.816,25.664454,
1012.851,22.854818,
1011.887,20.305599,
1010.923,17.778515,
1009.959,15.644401,
1008.995,16.690104,
1008.030,19.665234,
1007.066,20.472786,
1006.102,16.943621,
1005.138,12.654037,
1004.173,12.936068,
1003.209,13.284896,
1002.245,12.147786,
1001.281,12.197526,
1000.316,14.259114,
999.352,17.891666,
998.388,22.041927,
997.424,25.404558,
996.460,26.985937,
995.495,27.661198,
994.531,28.340626,
993.567,28.200781,
992.603,25.572527,
991.638,20.529427,
990.674,16.480598,
989.710,19.822786,
988.746,27.873308,
987.781,28.583073,
986.817,24.105598,
985.853,20.23802,
984.889,19.44961,
983.924,20.508854,
982.960,21.227604,
981.996,20.570051,
981.032,20.838411,
980.068,23.057682,
979.103,24.102995,
978.139,21.354036,
977.175,16.184376,
976.211,13.098568,
975.246,14.904428,
974.282,16.960155,
973.318,19.444792,
972.354,23.032812,
971.389,24.161068,
970.425,22.409895,
969.461,20.735807,
968.497,22.624088,
967.533,27.325521,
966.568,29.279688,
965.604,28.058332,
964.640,26.24349,
963.676,25.189192,
962.711,24.594662,
961.747,23.340105,
960.783,21.021484,
959.819,18.466406,
958.854,18.789063,
957.890,21.803255,
956.926,24.238152,
955.962,25.221874,
954.997,25.645052,
954.033,25.998047,
953.069,24.403906,
952.105,20.020052,
951.141,15.829037,
950.176,15.191797,
949.212,18.559896,
948.248,23.801302,
947.284,28.03828,
946.319,29.96888,
945.355,29.82526,
944.391,25.939453,
943.427,20.057682,
942.462,16.351954,
941.498,16.020573,
940.534,17.231251,
939.570,17.613932,
938.606,18.369791,
937.641,22.053125,
936.677,25.716797,
935.713,25.76927,
934.749,22.335546,
933.784,18.936979,
932.820,20.056902,
931.856,26.836979,
930.892,32.441929,
929.927,31.648438,
928.963,26.371355,
927.999,18.51927,
927.035,9.655859,
926.070,2.2076824,
925.106,0.51927084,
924.142,3.2787759,
923.178,4.5209637,
922.214,4.7973957,
921.249,4.0376301,
920.285,2.4063802,
919.321,1.2088542,
918.357,2.9832032,
917.392,8.2855473,
916.428,13.348958,
915.464,16.471224,
914.500,18.33099,
913.535,19.916277,
912.571,22.114584,
911.607,25.330078,
910.643,28.930208,
909.679,31.594662,
908.714,35.099869,
907.750,38.988022,
906.786,41.344791,
905.822,42.409245,
904.857,44.292709,
903.893,46.562759,
902.929,45.948177,
901.965,48.173046,
901.000,54.466015,
900.036,62.296093,
899.072,69.310417,
898.108,74.804947,
897.143,79.353905,
896.179,80.247398,
895.215,77.86393,
894.251,75.4207,
893.287,74.003777,
892.322,75.125778,
891.358,79.726952,
890.394,86.053909,
889.430,88.077606,
888.465,88.688278,
887.501,97.061455,
886.537,112.93932,
885.573,131.90404,
884.608,149.40807,
883.644,164.40234,
882.680,177.79713,
881.716,191.21967,
880.751,205.03334,
879.787,217.39218,
878.823,227.24948,
877.859,233.26953,
876.895,233.12943,
875.930,226.25482,
874.966,212.18047,
874.002,193.26471,
873.038,182.99336,
872.073,182.76158,
871.109,185.82018,
870.145,185.75169,
869.181,183.24583,
868.216,183.28725,
867.252,187.04245,
866.288,195.51353,
865.324,209.29765,
864.360,227.44531,
863.395,247.11314,
862.431,266.44922,
861.467,289.12396,
860.503,318.94205,
859.538,355.60559,
858.574,397.42618,
857.610,443.16562,
856.646,491.02045,
855.681,526.83777,
854.717,555.01526,
853.753,572.67542,
852.789,579.68109,
851.824,573.83063,
850.860,552.04633,
849.896,513.54504,
848.932,464.96863,
847.968,415.2789,
847.003,365.41641,
846.039,322.64362,
845.075,288.04492,
844.111,259.75391,
843.146,237.33881,
842.182,219.02852,
841.218,201.244,
840.254,186.0569,
839.289,172.96835,
838.325,161.75104,
837.361,152.22435,
836.397,143.32603,
835.433,134.46849,
834.468,125.10195,
833.504,115.80898,
832.540,107.81432,
831.576,102.02773,
830.611,98.447784,
829.647,96.295967,
828.683,95.610939,
827.719,96.435936,
826.754,98.804169,
825.790,101.99622,
824.826,103.7914,
823.862,102.33308,
822.897,99.986458,
821.933,99.561981,
820.969,99.723305,
820.005,99.545441,
819.041,98.715492,
818.076,97.48333,
817.112,96.462631,
816.148,96.244141,
815.184,97.242577,
814.219,98.405205,
813.255,98.171097,
812.291,95.563408,
811.327,91.009636,
810.362,86.881905,
809.398,88.77578,
808.434,94.746223,
807.470,97.334892,
806.506,97.544792,
805.541,99.820702,
804.577,107.52292,
803.613,118.65469,
802.649,123.30169,
801.684,120.93255,
800.720,117.97643,
799.756,117.01498,
798.792,117.91862,
797.827,119.62435,
796.863,122.9888,
795.899,129.42018,
794.935,142.13933,
793.970,159.83217,
793.006,176.64401,
792.042,188.98659,
791.078,195.26485,
790.114,180.79961,
789.149,152.21471,
788.185,125.94076,
787.221,102.19336,
786.257,81.846878,
785.292,66.014061,
784.328,54.559376,
783.364,43.406639,
782.400,29.88698,
781.435,17.621876,
780.471,10.742188,
779.507,9.7360678,
778.543,10.592318,
777.579,6.0255208,
776.614,-0.96302086,
775.650,-0.72981769,
774.686,3.9117188,
773.722,5.9757814,
772.757,2.2677083,
771.793,-3.4627604,
770.829,-5.4236979,
769.865,-4.4686198,
768.900,-3.1229167,
767.936,-2.0106771,
766.972,-1.4736979,
766.008,-1.7615886,
765.043,-3.0260417,
764.079,-4.0119791,
763.115,-3.7522135,
762.151,-2.6813803,
761.187,-1.4076823,
760.222,-0.56158853,
759.258,-0.65729165,
758.294,-2.0501301,
757.330,-4.1717448,
756.365,-3.7695313,
755.401,-0.6434896,
754.437,2.309375,
753.473,2.0449219,
752.508,-1.6854167,
751.544,-4.2690105,
750.580,-4.2148438,
749.616,-3.3299479,
748.652,-2.2433593,
747.687,-1.4696615,
746.723,-1.7471354,
745.759,-4.3535156,
744.795,-7.1859374,
743.830,-9.1988277,
742.866,-10.958203,
741.902,-10.951823,
740.938,-7.9153647,
739.973,-3.3946614,
739.009,-2.3389323,
738.045,-2.539453,
737.081,-2.8954427,
736.116,-3.253125,
735.152,-3.2815104,
734.188,-2.2845051,
733.224,0.45742187,
732.260,1.9988282,
731.295,-1.2411458,
730.331,-7.4705729,
729.367,-12.215495,
728.403,-12.19961,
727.438,-9.3164063,
726.474,-6.666276,
725.510,-2.9747396,
724.546,-1.1170573,
723.581,-1.2519531,
722.617,-3.0127604,
721.653,-6.3897138,
720.689,-11.15026,
719.725,-11.896224,
718.760,-8.8692713,
717.796,-4.8734374,
716.832,-1.8447917,
715.868,-0.16575521,
714.903,1.2408854,
713.939,0.71106774,
712.975,-1.0054687,
712.011,-2.3664062,
711.046,-2.8604167,
710.082,-0.066276044,
709.118,11.597656,
708.154,31.08672,
707.189,47.469009,
706.225,63.068489,
705.261,79.035156,
704.297,95.904556,
703.333,113.13503,
702.368,128.11041,
701.404,140.61914,
700.440,149.10951,
699.476,151.29179,
698.511,146.94675,
697.547,137.41679,
696.583,123.83997,
695.619,104.59023,
694.654,81.520706,
693.690,55.598698,
692.726,31.904036,
691.762,13.855989,
690.798,-0.8671875,
689.833,-4.5880208,
688.869,-0.91080731,
687.905,1.5111979,
686.941,1.0963541,
685.976,-1.0003906,
685.012,-2.9967449,
684.048,-4.5445313,
683.084,-5.5333333,
682.119,-5.0786457,
681.155,-3.5898438,
680.191,-2.0136719,
679.227,-1.0320313,
678.262,0.6122396,
677.298,3.7520833,
676.334,6.4001303,
675.370,6.0330729,
674.406,2.4308593,
673.441,-2.2423177,
672.477,-3.6346354,
671.513,-1.8876302,
670.549,-2.1186197,
669.584,-5.0712237,
668.620,-8.6954432,
667.656,-10.267578,
666.692,-8.5277348,
665.727,-6.0585938,
664.763,-4.8996096,
663.799,-4.2671876,
662.835,-3.71875,
661.871,-3.0664063,
660.906,-2.4460938,
659.942,-3.2226563,
658.978,-5.0572915,
658.014,-4.4850259,
657.049,-1.5432292,
656.085,0.94466144,
655.121,-0.96979165,
654.157,-5.7933593,
653.192,-5.8389325,
652.228,-2.0967448,
651.264,2.3481772,
650.300,5.2884116,
649.335,6.2128906,
648.371,6.1911459,
647.407,5.0648437,
646.443,3.3908854,
645.479,2.3548176,
644.514,2.4394531,
643.550,3.0231771,
642.586,1.7376302,
641.622,-1.6134114,
640.657,-0.41614583,
639.693,3.8888021,
638.729,8.7238283,
637.765,12.267447,
636.800,15.941667,
635.836,22.890234,
634.872,32.470444,
633.908,55.154949,
632.944,98.720444,
631.979,166.44701,
631.015,256.6875,
630.051,376.48959,
629.087,490.76563,
628.122,547.37372,
627.158,545.04169,
626.194,498.51419,
625.230,402.3577,
624.265,254.21849,
623.301,170.35886,
622.337,118.91823,
621.373,80.723434,
620.408,48.757423,
619.444,27.111979,
618.480,15.916146,
617.516,12.390104,
616.552,11.300651,
615.587,8.4148436,
614.623,2.8845053,
613.659,-0.89583331,
612.695,3.7990885,
611.730,9.7787762,
610.766,8.46875,
609.802,0.73671877,
608.838,-7.2166667,
607.873,-7.1981769,
606.909,-3.7828126,
605.945,-1.5277344,
604.981,0.85950524,
604.017,1.0540365,
603.052,-2.9595053,
602.088,-9.6095057,
601.124,-10.426042,
600.160,-6.6091146,
599.195,-2.45625,
598.231,-0.29505208,
597.267,-0.48684895,
596.303,-1.3259114,
595.338,-1.0910156,
594.374,-0.54270834,
593.410,-1.6895833,
592.446,-4.4294271,
591.481,-5.8951821,
590.517,0.30846354,
589.553,12.591797,
588.589,13.913932,
587.625,7.3014321,
586.660,0.30169269,
585.696,-0.53398436,
584.732,3.8377604,
583.768,3.8446615,
582.803,-0.10052083,
581.839,-3.491797,
580.875,-3.7027345,
579.911,-0.61692709,
578.946,2.5294271,
577.982,3.1016927,
577.018,2.3746095,
576.054,0.38723958,
575.089,-2.2473958,
574.125,-4.3710938,
573.161,-4.0115886,
572.197,-2.1988282,
571.233,0.15130208,
570.268,2.6858072,
569.304,5.0096354,
568.340,6.832552,
567.376,8.6106768,
566.411,10.256511,
565.447,11.539454,
564.483,11.704557,
563.519,10.088672,
562.554,6.4822917,
561.590,2.3712239,
560.626,-0.24257812,
559.662,-2.0123699,
558.698,-2.0183594,
557.733,0.20117188,
556.769,3.9847655,
555.805,6.0678387,
554.841,7.6729169,
553.876,10.323047,
552.912,13.863281,
551.948,17.889584,
550.984,22.478254,
550.019,28.357683,
549.055,30.514843,
548.091,27.871876,
547.127,21.863281,
546.162,14.662761,
545.198,7.4076824,
544.234,1.9786458,
543.270,4.1729169,
542.306,10.696094,
541.341,15.788542,
540.377,15.001302,
539.413,12.70612,
538.449,13.778385,
537.484,15.11224,
536.520,15.535287,
535.556,14.605989,
534.592,12.501693,
533.627,9.5897131,
532.663,6.6765623,
531.699,5.5197916,
530.735,6.5839844,
529.771,8.8898439,
528.806,10.000391,
527.842,7.447526,
526.878,5.3972654,
525.914,5.981771,
524.949,8.2394533,
523.985,9.6002607,
523.021,6.6100259,
522.057,1.2386719,
521.092,0.99869794,
520.128,4.5858073,
519.164,8.2250004,
518.200,8.1196613,
517.235,5.1300783,
516.271,3.6308594,
515.307,3.6102865,
514.343,4.1010418,
513.379,4.5050783,
512.414,4.7954426,
511.450,5.1977863,
510.486,5.2967448,
509.522,6.723177,
508.557,11.147526,
507.593,18.177473,
506.629,23.94948,
505.665,17.66914,
504.700,7.7692709,
503.736,1.7864584,
502.772,0.64361978,
501.808,1.7290365,
500.844,2.0333333,
499.879,2.1031251,
498.915,2.9419272,
497.951,4.5334635,
496.987,6.2807293,
496.022,7.221745,
495.058,6.6566405,
494.094,5.3029947,
493.130,4.0791669,
492.165,3.7753906,
491.201,4.8399739,
490.237,7.2016926,
489.273,10.1625,
488.308,14.853776,
487.344,19.790495,
486.380,21.327475,
485.416,16.519011,
484.452,8.7244787,
483.487,7.0204425,
482.523,8.5566406,
481.559,10.844531,
480.595,12.156771,
479.630,11.951823,
478.666,12.279948,
477.702,14.465755,
476.738,17.045963,
475.773,18.904947,
474.809,19.599218,
473.845,20.038021,
472.881,20.754818,
471.917,20.241016,
470.952,15.398046,
469.988,5.6550779,
469.024,-6.2895832,
468.060,-9.125391,
467.095,-6.728776,
466.131,-4.2963543,
465.167,-2.4720051,
464.203,-0.78802085,
463.238,1.4208333,
462.274,4.0324221,
461.310,6.2429686,
460.346,8.7003908,
459.381,11.090755,
458.417,12.127734,
457.453,8.1477861,
456.489,3.048177,
455.525,3.2457032,
454.560,6.8382812,
453.596,9.5018225,
452.632,6.0092449,
451.668,0.0125,
450.703,-1.1696614,
449.739,-0.0546875,
448.775,2.224349,
447.811,5.4792967,
446.846,10.313021,
445.882,9.635807,
444.918,4.4872394,
443.954,-0.97721356,
442.990,-3.2473958,
442.025,-0.92500001,
441.061,1.8226563,
440.097,1.997526,
439.133,0.99752605,
438.168,0.6363281,
437.204,2.3046875,
436.240,5.0108075,
435.276,4.8367186,
434.311,3.7445312,
433.347,1.7151042,
432.383,-1.5145833,
431.419,-6.1364584,
430.454,-8.1656246,
429.490,-8.6540365,
428.526,-7.4354167,
427.562,-4.5447917,
426.598,-0.37434897,
425.633,3.4569011,
424.669,5.8712239,
423.705,5.9645834,
422.741,2.599349,
421.776,-3.6408854,
420.812,-9.5592451,
419.848,-5.5859375,
418.884,0.97981769,
417.919,3.0838542,
416.955,-0.44973958,
415.991,-5.8953123,
415.027,-3.8981771,
414.063,1.1463542,
413.098,5.5705729,
412.134,8.9914064,
411.170,11.436328,
410.206,11.998047,
409.241,10.628515,
408.277,8.9128904,
407.313,7.1808596,
406.349,5.7347655,
405.384,4.9317708,
404.420,6.2298179,
403.456,8.0080729,
402.492,8.5977869,
401.527,8.0037756,
400.563,6.7065105,
399.599,4.4812498,
398.635,1.414323,
397.671,0.97773439,
396.706,2.6972656,
395.742,4.6351562,
394.778,3.6832032,
393.814,-0.026302082,
392.849,-2.6104167,
391.885,-3.6815104,
390.921,-3.947526,
389.957,-4.7908854,
388.992,-7.3300781,
388.028,-8.7721357,
387.064,-7.2808595,
386.100,-3.7041667,
385.136,-0.21940105,
384.171,-0.54036456,
383.207,-2.9222655,
382.243,-3.6126301,
381.279,-3.1265626,
380.314,-2.2990885,
379.350,-1.8476563,
378.386,-0.91796875,
377.422,-0.98138022,
376.457,-1.6113281,
375.493,-2.0591147,
374.529,-1.6114583,
373.565,-0.91471356,
372.600,-0.46966144,
371.636,0.054166667,
370.672,0.19388022,
369.708,-0.63574219,
368.744,-2.9059246,
367.779,-3.2789063,
366.815,-0.75169271,
365.851,2.7350261,
364.887,5.1225262,
363.922,4.7395835,
362.958,2.7475259,
361.994,-0.65904945,
361.030,-4.4128256,
360.065,-6.2506509,
359.101,-3.6740234,
358.137,1.4096354,
357.173,2.6032553,
356.209,0.33730468,
355.244,-3.8708985,
354.280,-8.2486324,
353.316,-11.842122,
352.352,-12.704883,
351.387,-9.2684898,
350.423,-3.5800781,
349.459,1.2589843,
348.495,1.4049479,
347.530,-0.18652344,
346.566,-1.719987,
345.602,-3.519336,
344.638,-5.6259112,
343.673,-7.7753253,
342.709,-10.437304,
341.745,-10.992708,
340.781,-9.6821613,
339.817,-6.943294,
338.852,-3.3009114,
337.888,1.2028645,
336.924,3.9781902,
335.960,3.9471354,
334.995,1.7568359,
334.031,-1.2188802,
333.067,-3.21875,
332.103,-4.716341,
331.138,-5.5216799,
330.174,-5.252409,
329.210,-3.331836,
328.246,1.3595703,
327.282,7.3194013,
326.317,8.191927,
325.353,5.1309247,
324.389,0.83111978,
323.425,-0.86471355,
322.460,-0.54602867,
321.496,-0.96757811,
320.532,-2.2839193,
319.568,-3.8927734,
318.603,-4.6096354,
317.639,-3.164453,
316.675,-2.1031251,
315.711,-3.0544922,
314.746,-5.5414715,
313.782,-7.7104168,
312.818,-5.2723308,
311.854,-0.46673176,
310.890,3.114388,
309.925,4.7904296,
308.961,4.8050132,
307.997,3.3659506,
307.033,0.58294272,
306.068,-1.660612,
305.104,-2.7309244,
304.140,-2.0315754,
303.176,1.8309896,
302.211,9.0463543,
301.247,15.108594,
300.283,18.012175,
299.319,17.708529,
298.355,17.048828,
297.390,20.717447,
296.426,25.330469,
295.462,30.008724,
294.498,34.811394,
293.533,40.834702,
292.569,46.019466,
291.605,49.483009,
290.641,51.027344,
289.676,51.074871,
288.712,50.691017,
287.748,54.713867,
286.784,61.37513,
285.819,68.550262,
284.855,74.924606,
283.891,79.751694,
282.927,83.739716,
281.963,88.96048,
280.998,95.738213,
280.034,103.47669,
279.070,111.1847,
278.106,118.03353,
277.141,125.40964,
276.177,132.81023,
275.213,140.2774,
274.249,148.18437,
273.284,157.99336,
272.320,161.5457,
271.356,160.68913,
270.392,158.85449,
269.428,159.15938,
268.463,160.53777,
267.499,161.5114,
266.535,162.3903,
265.571,162.52916,
264.606,161.00092,
263.642,156.26373,
262.678,148.49342,
261.714,138.80162,
260.749,128.39459,
259.785,119.0295,
258.821,114.51452,
257.857,112.6362,
256.892,108.13548,
255.928,101.04459,
254.964,93.172462,
254.000,89.166733,
253.036,87.659569,
252.071,84.471809,
251.107,79.527802,
250.143,74.059311,
249.179,71.228714,
248.214,71.418556,
247.250,71.512367,
246.286,71.04538,
245.322,69.841148,
244.357,67.690689,
243.393,61.904621,
242.429,54.977863,
241.465,49.16758,
240.500,45.646549,
239.536,43.520832,
238.572,46.642448,
237.608,52.821812,
236.644,56.810482,
235.679,55.741341,
234.715,51.805729,
233.751,48.716408,
232.787,45.545574,
231.822,43.222332,
230.858,42.508335,
229.894,43.766079,
228.930,46.429165,
227.965,49.438477,
227.001,51.514324,
226.037,51.417969,
225.073,47.830208,
224.109,44.609051,
223.144,45.696877,
222.180,49.752995,
221.216,53.976757,
220.252,53.034309,
219.287,49.336132,
218.323,49.656185,
217.359,53.246418,
216.395,57.682358,
215.430,58.146095,
214.466,55.932941,
213.502,54.760612,
212.538,55.247524,
211.573,57.039127,
210.609,58.099545,
209.645,57.37513,
208.681,56.786915,
207.717,57.108269,
206.752,58.600975,
205.788,60.480793,
204.824,62.618164,
203.860,65.086266,
202.895,66.939583,
201.931,67.341209,
200.967,66.546616,
200.003,66.173241,
199.038,64.998245,
198.074,62.634113,
197.110,59.192837,
196.146,56.524155,
195.182,55.818035,
194.217,56.324741,
193.253,57.641212,
192.289,59.303581,
191.325,60.134377,
190.360,59.107292,
189.396,57.011459,
188.432,54.830338,
187.468,53.757748,
186.503,55.347591,
185.539,58.230534,
184.575,60.722851,
183.611,62.294468,
182.646,63.132813,
181.682,66.827736,
180.718,72.020439,
179.754,75.037041,
178.790,75.019463,
177.825,73.326889,
176.861,74.01667,
175.897,75.651756,
174.933,77.486328,
173.968,79.25013,
173.004,81.221222,
172.040,84.566605,
171.076,89.034698,
170.111,93.574219,
169.147,96.804428,
168.183,96.553841,
167.219,95.630859,
166.255,99.642708,
165.290,107.16543,
164.326,114.97142,
163.362,116.18594,
162.398,113.85957,
161.433,113.91992,
160.469,116.59538,
159.505,120.8875,
158.541,124.52917,
157.576,127.49863,
156.612,131.4483,
155.648,136.71751,
154.684,143.14264,
153.719,149.3571,
152.755,155.0054,
151.791,160.48346,
150.827,166.01537,
149.863,171.73788,
148.898,178.97539,
147.934,187.94785,
146.970,197.52481,
146.006,206.22305,
145.041,211.94003,
144.077,215.31804,
143.113,224.89401,
142.149,239.3071,
141.184,255.16113,
140.220,265.60944,
139.256,271.27832,
138.292,279.38464,
137.328,291.13556,
136.363,306.32559,
135.399,322.48743,
134.435,337.90378,
133.471,353.43555,
132.506,370.12167,
131.542,388.75104,
130.578,409.64746,
129.614,429.57538,
128.649,448.60196,
127.685,466.75995,
126.721,484.03452,
125.757,500.76303,
124.792,524.6972,
123.828,553.64325,
122.864,583.33124,
121.900,606.94183,
120.936,624.41833,
119.971,645.6618,
119.007,671.98444,
118.043,702.46393,
117.079,731.96655,
116.114,755.59198,
115.150,778.05798,
114.186,802.01044,
113.222,829.30859,
112.257,859.97742,
111.293,893.29108,
110.329,926.89703,
109.365,957.80402,
108.401,982.5097,
107.436,1002.7471,
106.472,1024.8733,
105.508,1048.8751,
104.544,1075.061,
103.579,1104.1256,
102.615,1134.1234,
101.651,1159.3406,
100.687,1179.2449,
99.722,1195.069,
98.758,1211.4635,
97.794,1231.9493,
96.830,1255.0325,
95.865,1281.2961,
94.901,1311.004,
93.937,1341.2396,
92.973,1368.8508,
92.009,1397.0844,
91.044,1427.1727,
90.080,1459.1693,
89.116,1492.4222,
88.152,1525.7224,
87.187,1558.3544,
86.223,1589.9503,
85.259,1621.0333,
84.295,1653.6289,
83.330,1688.3029,
82.366,1725.4386,
81.402,1766.2826,
80.438,1815.6118,
79.474,1873.9584,
78.509,1932.8164,
77.545,1987.4012,
76.581,2034.5972,
75.617,2081.9006,
74.652,2135.9868,
73.688,2194.6501,
72.724,2257.2097,
71.760,2324.3025,
70.795,2388.8843,
69.831,2445.3394,
68.867,2499.1624,
67.903,2555.0977,
66.938,2617.2463,
65.974,2683.606,
65.010,2756.4431,
64.046,2835.8542,
63.082,2920.4788,
62.117,3006.1812,
61.153,3090.4241,
60.189,3172.0532,
59.225,3248.9927,
58.260,3318.0625,
57.296,3379.1538,
56.332,3438.1365,
55.368,3494.6775,
54.403,3546.4006,
53.439,3582.875,
52.475,3609.1807,
51.511,3638.999,
50.547,3674.5688,
