,PP spectrum,
Raman shift [1/cm],Counts/sec,
3409.936,-20.532553,
3408.972,-21.043751,
3408.007,-17.851301,
3407.043,-15.131511,
3406.079,-15.801823,
3405.115,-16.874479,
3404.150,-19.095312,
3403.186,-17.094791,
3402.222,-12.79401,
3401.258,-11.936198,
3400.293,-9.5481768,
3399.329,-3.1302083,
3398.365,1.0276042,
3397.401,-4.0539064,
3396.437,-7.3304687,
3395.472,-0.27682292,
3394.508,6.971354,
3393.544,12.948698,
3392.580,15.15599,
3391.615,9.6773434,
3390.651,16.139843,
3389.687,24.437761,
3388.723,15.941927,
3387.758,3.0424478,
3386.794,6.6356769,
3385.830,17.785938,
3384.866,17.785938,
3383.901,16.327604,
3382.937,19.802864,
3381.973,24.313541,
3381.009,27.98073,
3380.045,25.856771,
3379.080,17.129427,
3378.116,16.013021,
3377.152,24.518229,
3376.188,35.828125,
3375.223,46.376041,
3374.259,48.410416,
3373.295,41.357033,
3372.331,39.053905,
3371.366,39.274479,
3370.402,44.251823,
3369.438,52.44479,
3368.474,60.093227,
3367.510,61.555988,
3366.545,52.417969,
3365.581,47.584637,
3364.617,54.245571,
3363.653,61.743488,
3362.688,66.691925,
3361.724,67.936722,
3360.760,63.914585,
3359.796,72.142448,
3358.831,86.259377,
3357.867,93.184372,
3356.903,91.972916,
3355.939,79.439842,
3354.974,62.46146,
3354.010,59.22448,
3353.046,61.225262,
3352.082,63.86797,
3351.118,69.629166,
3350.153,78.049217,
3349.189,80.590622,
3348.225,78.50547,
3347.261,80.012764,
3346.296,83.998695,
3345.332,84.356773,
3344.368,82.666924,
3343.404,87.04792,
3342.439,94.726044,
3341.475,96.776299,
3340.511,96.480988,
3339.547,95.522919,
3338.583,94.412239,
3337.618,93.932549,
3336.654,98.324738,
3335.690,110.34427,
3334.726,116.35989,
3333.761,109.77239,
3332.797,102.88177,
3331.833,100.49114,
3330.869,95.610939,
3329.904,91.449738,
3328.940,95.505211,
3327.976,100.67864,
3327.012,105.51979,
3326.047,108.90625,
3325.083,106.97656,
3324.119,106.47787,
3323.155,124.2013,
3322.191,138.30989,
3321.226,123.65234,
3320.262,113.78464,
3319.298,125.24062,
3318.334,127.1388,
3317.369,116.51432,
3316.405,119.73438,
3315.441,133.61823,
3314.477,143.26718,
3313.512,148.14922,
3312.548,149.60651,
3311.584,145.86406,
3310.620,142.74297,
3309.656,140.03177,
3308.691,138.7487,
3307.727,140.30963,
3306.763,143.61589,
3305.799,147.08958,
3304.834,149.79401,
3303.870,149.96745,
3302.906,145.68124,
3301.942,139.41562,
3300.977,136.2164,
3300.013,143.77708,
3299.049,163.21172,
3298.085,166.75365,
3297.120,157.03334,
3296.156,158.21901,
3295.192,165.15312,
3294.228,162.90938,
3293.264,156.99271,
3292.299,163.40651,
3291.335,175.45209,
3290.371,175.19818,
3289.407,170.62032,
3288.442,168.71407,
3287.478,168.89635,
3286.514,171.03438,
3285.550,175.01797,
3284.585,180.46536,
3283.621,181.88281,
3282.657,177.35052,
3281.693,174.91042,
3280.729,178.43594,
3279.764,180.28932,
3278.800,180.08333,
3277.836,184.91432,
3276.872,188.88542,
3275.907,185.95833,
3274.943,184.05704,
3273.979,189.01744,
3273.015,194.57083,
3272.050,192.5862,
3271.086,188.25313,
3270.122,191.29636,
3269.158,193.80208,
3268.193,187.77214,
3267.229,184.68698,
3266.265,188.78751,
3265.301,194.70287,
3264.337,202.07474,
3263.372,201.30963,
3262.408,192.64218,
3261.444,184.62135,
3260.480,179.03932,
3259.515,181.97447,
3258.551,193.96016,
3257.587,195.62682,
3256.623,194.20287,
3255.658,195.5573,
3254.694,196.86615,
3253.730,202.18515,
3252.766,211.46797,
3251.802,223.12239,
3250.837,231.1935,
3249.873,227.78099,
3248.909,223.07761,
3247.945,225.97995,
3246.980,232.42839,
3246.016,242.05782,
3245.052,244.47578,
3244.088,237.17708,
3243.123,232.31511,
3242.159,231.87318,
3241.195,234.21953,
3240.231,237.39635,
3239.266,237.91745,
3238.302,236.32683,
3237.338,237.59453,
3236.374,241.16171,
3235.410,246.07916,
3234.445,251.8875,
3233.481,252.38359,
3232.517,249.9276,
3231.553,248.61641,
3230.588,251.82109,
3229.624,262.93387,
3228.660,272.55832,
3227.696,272.12839,
3226.731,271.79871,
3225.767,279.62604,
3224.803,283.30573,
3223.839,280.44894,
3222.875,282.60236,
3221.910,287.45444,
3220.946,290.11511,
3219.982,291.60651,
3219.018,294.92941,
3218.053,298.65103,
3217.089,294.77316,
3216.125,286.70676,
3215.161,298.26303,
3214.196,313.4487,
3213.232,312.01251,
3212.268,309.70209,
3211.304,312.75494,
3210.339,313.17422,
3209.375,307.35858,
3208.411,305.63803,
3207.447,315.30496,
3206.483,326.56433,
3205.518,333.87265,
3204.554,340.64948,
3203.590,348.96771,
3202.626,351.7164,
3201.661,344.67422,
3200.697,343.34869,
3199.733,349.15051,
3198.769,349.90521,
3197.804,344.54504,
3196.840,341.38333,
3195.876,338.07733,
3194.912,332.02448,
3193.948,330.45261,
3192.983,335.22238,
3192.019,342.55157,
3191.055,353.80887,
3190.091,361.52032,
3189.126,358.08359,
3188.162,352.83282,
3187.198,355.19193,
3186.234,354.46719,
3185.269,341.83203,
3184.305,333.51511,
3183.341,340.8125,
3182.377,344.60129,
3181.412,340.41849,
3180.448,340.09323,
3179.484,343.12604,
3178.520,341.60443,
3177.556,338.43906,
3176.591,341.66199,
3175.627,350.30051,
3174.663,352.8461,
3173.699,345.49817,
3172.734,340.61588,
3171.770,339.80261,
3170.806,332.82111,
3169.842,328.16043,
3168.877,335.26746,
3167.913,341.75311,
3166.949,338.64035,
3165.985,334.6651,
3165.020,335.29556,
3164.056,338.01901,
3163.092,342.58777,
3162.128,344.28802,
3161.164,342.91537,
3160.199,341.61197,
3159.235,343.26926,
3158.271,340.55365,
3157.307,331.88229,
3156.342,333.66379,
3155.378,344.66275,
3154.414,348.06119,
3153.450,341.64166,
3152.485,341.65417,
3151.521,352.47656,
3150.557,363.09897,
3149.593,371.73645,
3148.629,368.62759,
3147.664,360.53464,
3146.700,359.5578,
3145.736,361.55313,
3144.772,357.46405,
3143.807,352.28775,
3142.843,355.03073,
3141.879,359.44714,
3140.915,362.96301,
3139.950,366.64246,
3138.986,366.50027,
3138.022,365.55078,
3137.058,362.41379,
3136.093,358.02942,
3135.129,357.05261,
3134.165,360.80417,
3133.201,367.91769,
3132.237,375.47421,
3131.272,378.03046,
3130.308,368.02005,
3129.344,347.73047,
3128.380,348.9823,
3127.415,373.30832,
3126.451,376.31613,
3125.487,354.88489,
3124.523,342.89401,
3123.558,346.45703,
3122.594,350.61093,
3121.630,350.67032,
3120.666,351.7341,
3119.702,352.56067,
3118.737,351.5513,
3117.773,353.55078,
3116.809,351.74426,
3115.845,348.37137,
3114.880,351.08905,
3113.916,353.05832,
3112.952,348.4216,
3111.988,344.22083,
3111.023,347.10599,
3110.059,350.55051,
3109.095,347.14948,
3108.131,345.27423,
3107.166,354.48828,
3106.202,365.73126,
3105.238,375.39426,
3104.274,373.35495,
3103.310,353.31119,
3102.345,339.91486,
3101.381,345.83514,
3100.417,351.62735,
3099.453,352.26666,
3098.488,357.30365,
3097.524,368.89426,
3096.560,378.25781,
3095.596,381.62943,
3094.631,381.71173,
3093.667,379.45468,
3092.703,379.66666,
3091.739,381.67709,
3090.775,377.41718,
3089.810,368.86432,
3088.846,369.46616,
3087.882,377.27866,
3086.918,381.84375,
3085.953,385.99896,
3084.989,386.36639,
3084.025,384.86301,
3083.061,386.78125,
3082.096,390.85574,
3081.132,395.37552,
3080.168,398.49637,
3079.204,397.21329,
3078.239,394.92551,
3077.275,401.08594,
3076.311,408.79974,
3075.347,408.89636,
3074.383,408.63803,
3073.418,413.88855,
3072.454,417.53256,
3071.490,417.33749,
3070.526,420.00339,
3069.561,427.41666,
3068.597,432.069,
3067.633,430.37683,
3066.669,423.61407,
3065.704,414.34686,
3064.740,414.74426,
3063.776,427.75259,
3062.812,430.44635,
3061.848,419.9552,
3060.883,413.5177,
3059.919,413.36145,
3058.955,419.69427,
3057.991,429.33881,
3057.026,430.84634,
3056.062,425.74817,
3055.098,427.90366,
3054.134,435.81458,
3053.169,433.01041,
3052.205,418.39764,
3051.241,420.18124,
3050.277,431.04715,
3049.312,441.83151,
3048.348,449.48438,
3047.384,449.13931,
3046.420,444.99689,
3045.456,443.85938,
3044.491,444.14011,
3043.527,443.74011,
3042.563,443.05807,
3041.599,447.80728,
3040.634,455.72995,
3039.670,461.20807,
3038.706,464.18332,
3037.742,464.6763,
3036.777,462.93802,
3035.813,460.26093,
3034.849,459.75729,
3033.885,463.10858,
3032.921,467.42215,
3031.956,472.68906,
3030.992,480.34375,
3030.028,488.51303,
3029.064,494.77969,
3028.099,498.38022,
3027.135,499.47083,
3026.171,500.81537,
3025.207,502.82553,
3024.242,505.21719,
3023.278,510.53177,
3022.314,517.79456,
3021.350,525.38202,
3020.385,535.68958,
3019.421,547.36383,
3018.457,561.20288,
3017.493,566.95471,
3016.529,561.94739,
3015.564,561.08698,
3014.600,566.56665,
3013.636,574.31433,
3012.672,583.72528,
3011.707,597.07971,
3010.743,613.32111,
3009.779,622.66199,
3008.815,625.22864,
3007.850,630.42188,
3006.886,638.71979,
3005.922,650.44427,
3004.958,664.41565,
3003.994,682.71954,
3003.029,701.23358,
3002.065,710.86224,
3001.101,715.81976,
3000.137,731.46222,
2999.172,754.82971,
2998.208,776.05627,
2997.244,796.20129,
2996.280,803.35052,
2995.315,808.05939,
2994.351,824.60339,
2993.387,849.53961,
2992.423,878.63409,
2991.458,908.26483,
2990.494,937.13098,
2989.530,969.93878,
2988.566,1007.4622,
2987.602,1046.3364,
2986.637,1088.363,
2985.673,1133.9789,
2984.709,1184.6523,
2983.745,1244.6224,
2982.780,1311.6302,
2981.816,1381.7773,
2980.852,1456.4833,
2979.888,1537.8518,
2978.923,1624.8888,
2977.959,1722.6606,
2976.995,1839.4933,
2976.031,1979.3364,
2975.067,2146.2075,
2974.102,2340.0261,
2973.138,2557.0598,
2972.174,2786.7649,
2971.210,3031.7427,
2970.245,3318.2744,
2969.281,3648.3152,
2968.317,3992.7063,
2967.353,4338.4077,
2966.388,4692.4385,
2965.424,5052.5229,
2964.460,5399.6221,
2963.496,5725.8145,
2962.531,6034.2944,
2961.567,6328.0259,
2960.603,6628.6206,
2959.639,6919.7388,
2958.675,7131.5327,
2957.710,7249.5728,
2956.746,7296.1572,
2955.782,7283.249,
2954.818,7276.6123,
2953.853,7310.2046,
2952.889,7482.6118,
2951.925,7787.6426,
2950.961,8022.5791,
2949.996,8191.0938,
2949.032,8169.1885,
2948.068,7960.6094,
2947.104,7540.499,
2946.140,6947.1792,
2945.175,6315.5571,
2944.211,5687.1406,
2943.247,5136.9028,
2942.283,4658.9634,
2941.318,4264.1514,
2940.354,3957.1011,
2939.390,3760.6233,
2938.426,3654.6968,
2937.461,3618.8386,
2936.497,3648.342,
2935.533,3732.5066,
2934.569,3874.115,
2933.604,4076.9189,
2932.640,4330.751,
2931.676,4613.4238,
2930.712,4936.3403,
2929.748,5290.2612,
2928.783,5673.0327,
2927.819,6074.9219,
2926.855,6479.6235,
2925.891,6851.2866,
2924.926,7176.4346,
2923.962,7431.7803,
2922.998,7617.8657,
2922.034,7728.8154,
2921.069,7767.7271,
2920.105,7742.8745,
2919.141,7664.9951,
2918.177,7567.2793,
2917.213,7447.3037,
2916.248,7333.6333,
2915.284,7237.9575,
2914.320,7179.021,
2913.356,7160.9053,
2912.391,7186.604,
2911.427,7263.8481,
2910.463,7426.9932,
2909.499,7668.936,
2908.534,8001.5654,
2907.570,8427.6455,
2906.606,8949.1064,
2905.642,9496.3975,
2904.677,9998.0459,
2903.713,10422.4,
2902.749,10736.395,
2901.785,10906.498,
2900.821,10876.372,
2899.856,10695.85,
2898.892,10463.16,
2897.928,10205.689,
2896.964,10005.588,
2895.999,9831.6416,
2895.035,9705.1084,
2894.071,9655.0957,
2893.107,9712.2393,
2892.142,9862.2813,
2891.178,10087.103,
2890.214,10373.559,
2889.250,10725.875,
2888.286,11143.225,
2887.321,11604.548,
2886.357,12108.873,
2885.393,12636.306,
2884.429,13129.897,
2883.464,13543.525,
2882.500,13878.4,
2881.536,14116.814,
2880.572,14197.659,
2879.607,14073.649,
2878.643,13781.401,
2877.679,13353.971,
2876.715,12819.104,
2875.750,12226.593,
2874.786,11611.411,
2873.822,11032.265,
2872.858,10497.394,
2871.894,10033.955,
2870.929,9689.6826,
2869.965,9505.8369,
2869.001,9441.79,
2868.037,9478.2725,
2867.072,9578.1348,
2866.108,9672.7373,
2865.144,9721.0771,
2864.180,9643.29,
2863.215,9398.5195,
2862.251,8895.248,
2861.287,8205.4404,
2860.323,7344.5439,
2859.359,6442.0459,
2858.394,5569.9033,
2857.430,4793.1123,
2856.466,4167.4331,
2855.502,3675.3123,
2854.537,3312.4089,
2853.573,3068.8152,
2852.609,2928.124,
2851.645,2856.3442,
2850.680,2817.5249,
2849.716,2828.2583,
2848.752,2889.4431,
2847.788,3008.3152,
2846.823,3185.5085,
2845.859,3415.6724,
2844.895,3699.0195,
2843.931,4042.7922,
2842.967,4448.9121,
2842.002,4897.3623,
2841.038,5354.0776,
2840.074,5797.7856,
2839.110,6199.7407,
2838.145,6484.7217,
2837.181,6601.4668,
2836.217,6560.4976,
2835.253,6357.3521,
2834.288,5998.5381,
2833.324,5480.355,
2832.360,4875.8955,
2831.396,4290.0757,
2830.431,3714.3088,
2829.467,3194.5569,
2828.503,2744.8943,
2827.539,2400.3704,
2826.575,2113.7542,
2825.610,1872.0599,
2824.646,1677.8646,
2823.682,1527.9479,
2822.718,1405.4442,
2821.753,1294.9109,
2820.789,1210.3479,
2819.825,1155.3469,
2818.861,1109.7589,
2817.896,1053.1448,
2816.932,997.2854,
2815.968,946.57397,
2815.004,902.40936,
2814.040,866.80627,
2813.075,840.49634,
2812.111,821.80103,
2811.147,805.01978,
2810.183,783.91718,
2809.218,756.66669,
2808.254,728.36511,
2807.290,706.25885,
2806.326,687.03644,
2805.361,668.64374,
2804.397,655.03644,
2803.433,639.38751,
2802.469,620.13019,
2801.504,605.03699,
2800.540,593.74689,
2799.576,579.24634,
2798.612,560.2099,
2797.648,545.85883,
2796.683,542.79999,
2795.719,541.60834,
2794.755,532.16925,
2793.791,521.375,
2792.826,516.62238,
2791.862,513.7146,
2790.898,508.97083,
2789.934,500.49115,
2788.969,488.8302,
2788.005,480.29895,
2787.041,477.61407,
2786.077,475.97083,
2785.113,471.30832,
2784.148,462.66614,
2783.184,447.19479,
2782.220,431.36459,
2781.256,428.60782,
2780.291,431.07916,
2779.327,427.1875,
2778.363,421,
2777.399,416.53958,
2776.434,411.68439,
2775.470,405.85782,
2774.506,402.99478,
2773.542,406.35312,
2772.577,411.20886,
2771.613,405.39532,
2770.649,392.49167,
2769.685,392.30313,
2768.721,397.23697,
2767.756,394.81509,
2766.792,390.67761,
2765.828,389.64532,
2764.864,394.66666,
2763.899,410.97083,
2762.935,430.88333,
2761.971,435.67917,
2761.007,430.67188,
2760.042,432.49582,
2759.078,437.23019,
2758.114,455.54218,
2757.150,481.14636,
2756.186,486.76614,
2755.221,485.16824,
2754.257,490.07916,
2753.293,500.07343,
2752.329,510.32968,
2751.364,521.22656,
2750.400,534.15887,
2749.436,546.38696,
2748.472,551.72656,
2747.507,550.763,
2746.543,557.72186,
2745.579,574.36823,
2744.615,587.91565,
2743.650,597.16248,
2742.686,608.23022,
2741.722,620.67133,
2740.758,629.51666,
2739.794,633.42969,
2738.829,641.12445,
2737.865,660.38593,
2736.901,683.80054,
2735.937,707.09583,
2734.972,737.42133,
2734.008,773.52502,
2733.044,796.87238,
2732.080,808.1297,
2731.115,825.48853,
2730.151,854.49323,
2729.187,883.38904,
2728.223,905.5979,
2727.259,930.7323,
2726.294,967.83594,
2725.330,1012.788,
2724.366,1062.6255,
2723.402,1116.8906,
2722.437,1175.4833,
2721.473,1228.2688,
2720.509,1270.6875,
2719.545,1296.5927,
2718.580,1297.1875,
2717.616,1274.7063,
2716.652,1233.1287,
2715.688,1177.5917,
2714.723,1115.3646,
2713.759,1048.5172,
2712.795,989.24323,
2711.831,933.66461,
2710.867,894.07605,
2709.902,865.73645,
2708.938,844.50677,
2707.974,828.21252,
2707.010,814.53961,
2706.045,801.138,
2705.081,781.8396,
2704.117,757.95471,
2703.153,730.59637,
2702.188,693.1698,
2701.224,657.55573,
2700.260,630.10522,
2699.296,596.91565,
2698.332,565.31305,
2697.367,547.41718,
2696.403,531.38226,
2695.439,510.42657,
2694.475,489.98489,
2693.510,472.05991,
2692.546,455.57394,
2691.582,447.23541,
2690.618,448.27655,
2689.653,451.46564,
2688.689,458.06668,
2687.725,450.54428,
2686.761,425.79584,
2685.796,414.62396,
2684.832,421.11874,
2683.868,428.46094,
2682.904,432.91199,
2681.940,435.92188,
2680.975,435.79895,
2680.011,432.05106,
2679.047,425.73386,
2678.083,424.67136,
2677.118,435.78436,
2676.154,441.55365,
2675.190,431.52448,
2674.226,422.39218,
2673.261,420.37552,
2672.297,420.34323,
2671.333,422.29062,
2670.369,422.18124,
2669.405,411.14636,
2668.440,398.86926,
2667.476,401.02655,
2666.512,406.10886,
2665.548,404.49426,
2664.583,408.07187,
2663.619,424.29376,
2662.655,438.28229,
2661.691,437.75311,
2660.726,430.86459,
2659.762,426.74478,
2658.798,428.17917,
2657.834,436.44531,
2656.869,443.92813,
2655.905,440.57605,
2654.941,436.65417,
2653.977,449.375,
2653.013,471.07813,
2652.048,477.01822,
2651.084,472.56561,
2650.120,461.35312,
2649.156,448.95676,
2648.191,445.59167,
2647.227,448.66876,
2646.263,447.80106,
2645.299,440.2052,
2644.334,426.48386,
2643.370,407.23801,
2642.406,387.24374,
2641.442,368.20782,
2640.478,355.91614,
2639.513,347.56406,
2638.549,336.02866,
2637.585,321.32239,
2636.621,309.46979,
2635.656,303.91251,
2634.692,295.28751,
2633.728,279.98749,
2632.764,269.91043,
2631.799,270.56458,
2630.835,273.60782,
2629.871,272.68646,
2628.907,266.99478,
2627.942,261.37082,
2626.978,254.31667,
2626.014,239.66927,
2625.050,226.50626,
2624.086,224.18698,
2623.121,227.94531,
2622.157,231.33958,
2621.193,233.84947,
2620.229,233.70729,
2619.264,234.43489,
2618.300,240.72188,
2617.336,248.41562,
2616.372,253.96771,
2615.407,254.66875,
2614.443,247.2599,
2613.479,240.28073,
2612.515,244.41562,
2611.551,254.76772,
2610.586,256.32187,
2609.622,247.38594,
2608.658,241.34166,
2607.694,242.63594,
2606.729,242.64688,
2605.765,238.30573,
2604.801,239.83229,
2603.837,247.47708,
2602.872,246.63853,
2601.908,237.42291,
2600.944,229.60104,
2599.980,225.70625,
2599.015,223.15781,
2598.051,221.58646,
2597.087,219.07603,
2596.123,212.39479,
2595.159,205.69896,
2594.194,202.28593,
2593.230,201.34219,
2592.266,204.99219,
2591.302,206.84323,
2590.337,203.46458,
2589.373,198.49532,
2588.409,191.66093,
2587.445,184.92343,
2586.480,183.18489,
2585.516,186.65157,
2584.552,194.2099,
2583.588,202.41406,
2582.624,197.9099,
2581.659,184.84843,
2580.695,183.4276,
2579.731,188.59271,
2578.767,189.83022,
2577.802,187.25626,
2576.838,179.25781,
2575.874,167.9151,
2574.910,161.78125,
2573.945,163.0276,
2572.981,162.14948,
2572.017,156.22656,
2571.053,153.98958,
2570.088,157.41875,
2569.124,160.78697,
2568.160,164.02448,
2567.196,162.91823,
2566.232,154.62187,
2565.267,141.875,
2564.303,124.50677,
2563.339,109.8,
2562.375,109.19167,
2561.410,117.63854,
2560.446,123.71407,
2559.482,127.71198,
2558.518,121.49948,
2557.553,109.11146,
2556.589,106.46927,
2555.625,109.70625,
2554.661,113.93282,
2553.697,117.32656,
2552.732,116.80469,
2551.768,113.50105,
2550.804,109.70364,
2549.840,106.70937,
2548.875,105.50105,
2547.911,104.68073,
2546.947,102.20313,
2545.983,97.673439,
2545.018,97.517189,
2544.054,105.775,
2543.090,111.05782,
2542.126,110.52865,
2541.161,105.62656,
2540.197,94.64167,
2539.233,84.582291,
2538.269,84.480728,
2537.305,92.188545,
2536.340,103.63281,
2535.376,109.81198,
2534.412,91.905205,
2533.448,73.047394,
2532.483,87.844795,
2531.519,106.30573,
2530.555,98.918228,
2529.591,82.740105,
2528.626,77.590103,
2527.662,81.377083,
2526.698,78.882294,
2525.734,70.310417,
2524.770,72.591667,
2523.805,84.438545,
2522.841,88.186981,
2521.877,85.085419,
2520.913,79.947914,
2519.948,73.378647,
2518.984,74.82917,
2518.020,81.086983,
2517.056,76.904167,
2516.091,60.520832,
2515.127,52.352604,
2514.163,66.199478,
2513.199,81.395836,
2512.234,76.51667,
2511.270,66.964066,
2510.306,70.816147,
2509.342,71.528122,
2508.378,52.808853,
2507.413,35.947395,
2506.449,40.389061,
2505.485,50.985939,
2504.521,53.722916,
2503.556,51.831249,
2502.592,54.528126,
2501.628,61.048439,
2500.664,62.660416,
2499.699,56.861458,
2498.735,46.045311,
2497.771,32.703648,
2496.807,26.40625,
2495.842,27.26198,
2494.878,31.495312,
2493.914,38.74271,
2492.950,42.85677,
2491.986,42.038021,
2491.021,36.695835,
2490.057,27.314062,
2489.093,21.732813,
2488.129,28.523958,
2487.164,36.80677,
2486.200,35.679688,
2485.236,32.547916,
2484.272,30.768749,
2483.307,29.100521,
2482.343,23.529688,
2481.379,15.831771,
2480.415,16.981251,
2479.451,22.585938,
2478.486,19.695833,
2477.522,8.932292,
2476.558,1.4401041,
2475.594,0.55364585,
2474.629,2.8270833,
2473.665,8.0135412,
2472.701,15.085938,
2471.737,21.057812,
2470.772,21.041145,
2469.808,16.528646,
2468.844,13.211458,
2467.880,11.330209,
2466.915,9.9885416,
2465.951,10.527083,
2464.987,13.45625,
2464.023,16.70677,
2463.059,17.861979,
2462.094,13.31875,
2461.130,6.6203127,
2460.166,4.4854169,
2459.202,3.1229167,
2458.237,5.5588541,
2457.273,9.708333,
2456.309,8.083333,
2455.345,2.7265625,
2454.380,-2.7807291,
2453.416,-7.2276044,
2452.452,-9.9609375,
2451.488,-10.628125,
2450.524,-11.165625,
2449.559,-11.883854,
2448.595,-5.8270831,
2447.631,9.7390623,
2446.667,21.317709,
2445.702,22.096874,
2444.738,17.434896,
2443.774,10.751041,
2442.810,8.6708336,
2441.845,14.352083,
2440.881,20.298437,
2439.917,19.866667,
2438.953,17.15052,
2437.988,15.057813,
2437.024,11.672396,
2436.060,7.2125001,
2435.096,2.7093749,
2434.132,8.9052086,
2433.167,23.114584,
2432.203,25.847395,
2431.239,18.182291,
2430.275,12.8,
2429.310,12.729167,
2428.346,14.585938,
2427.382,16.669271,
2426.418,16.186459,
2425.453,12.308854,
2424.489,7.7354169,
2423.525,2.2093749,
2422.561,0.34687501,
2421.597,8.53125,
2420.632,16.166666,
2419.668,16.518749,
2418.704,14.977604,
2417.740,16.526562,
2416.775,21.5375,
2415.811,25.134895,
2414.847,24.022917,
2413.883,21.640104,
2412.918,20.921354,
2411.954,19.93125,
2410.990,18.460417,
2410.026,17.320833,
2409.061,15.668229,
2408.097,12.646354,
2407.133,7.21875,
2406.169,3.1114583,
2405.205,4.3078127,
2404.240,5.3406248,
2403.276,-0.26718751,
2402.312,-4.1328125,
2401.348,6.0932293,
2400.383,21.950001,
2399.419,25.236458,
2398.455,18.341146,
2397.491,6.377604,
2396.526,-7.8156252,
2395.562,-15.896354,
2394.598,-18.934376,
2393.634,-13.55625,
2392.670,-2.8953125,
2391.705,0.76770836,
2390.741,-5.5979166,
2389.777,-8.75,
2388.813,-1.9145833,
2387.848,4.4598956,
2386.884,2.2203126,
2385.920,-1.2270833,
2384.956,0.11614583,
2383.991,2.8942709,
2383.027,4.4072919,
2382.063,2.3286459,
2381.099,-0.49427083,
2380.134,-0.030208332,
2379.170,3.4984374,
2378.206,6.9593749,
2377.242,6.3562498,
2376.278,1.6536459,
2375.313,-1.4239583,
2374.349,-0.51875001,
2373.385,1.9322916,
2372.421,2.8343749,
2371.456,-2.40625,
2370.492,-12.114062,
2369.528,-18.077604,
2368.564,-17.67552,
2367.599,-12.538021,
2366.635,-2.8645833,
2365.671,7.6151042,
2364.707,8.5739584,
2363.743,0.234375,
2362.778,-4.1114583,
2361.814,-2.8015625,
2360.850,-5.8692708,
2359.886,-11.747916,
2358.921,-10.816667,
2357.957,-8.2036457,
2356.993,-10.834896,
2356.029,-14.891666,
2355.064,-13.548959,
2354.100,-8.0031252,
2353.136,-6.455729,
2352.172,-9.0291662,
2351.207,-8.567708,
2350.243,-9.9869795,
2349.279,-12.803646,
2348.315,-1.9526042,
2347.351,11.332292,
2346.386,11.444792,
2345.422,9.1015625,
2344.458,2.15625,
2343.494,-8.3036461,
2342.529,-9.2817707,
2341.565,1.1182292,
2340.601,8.2989588,
2339.637,3.8453126,
2338.672,-0.89010417,
2337.708,3.0322917,
2336.744,6.6937499,
2335.780,1.4677083,
2334.816,-7.25,
2333.851,-11.760938,
2332.887,-12.684375,
2331.923,-10.982291,
2330.959,-6.1869793,
2329.994,2.5140624,
2329.030,12.092709,
2328.066,18.08802,
2327.102,20.557291,
2326.137,21.049999,
2325.173,18.766666,
2324.209,14.839583,
2323.245,10.925521,
2322.280,10.665625,
2321.316,15.745833,
2320.352,17.561979,
2319.388,10.694271,
2318.424,4.1385417,
2317.459,5.3656249,
2316.495,6.8083334,
2315.531,1.3072916,
2314.567,-4.4968748,
2313.602,-6.6046877,
2312.638,-9.067708,
2311.674,-5.377604,
2310.710,4.9026041,
2309.745,7.0203123,
2308.781,8.4177084,
2307.817,17.347395,
2306.853,22.664583,
2305.889,21.292187,
2304.924,19.35573,
2303.960,17.794271,
2302.996,14.826041,
2302.032,11.970312,
2301.067,9.2119789,
2300.103,2.8822916,
2299.139,-2.3567708,
2298.175,-0.26979166,
2297.210,1.0614583,
2296.246,-1.0526042,
2295.282,1.9854167,
2294.318,6.5989585,
2293.353,6.0052085,
2292.389,2.4734375,
2291.425,-0.096354164,
2290.461,-0.9609375,
2289.497,-0.38854167,
2288.532,1.0822917,
2287.568,0.69270831,
2286.604,-4.4875002,
2285.640,-13.295834,
2284.675,-22.33177,
2283.711,-29.153646,
2282.747,-22.635937,
2281.783,-8.4354162,
2280.818,-1.6916667,
2279.854,-3.5161459,
2278.890,-7.2296877,
2277.926,-9.5765629,
2276.962,-12.842188,
2275.997,-19.319792,
2275.033,-25.744791,
2274.069,-25.004688,
2273.105,-20.596874,
2272.140,-21.165104,
2271.176,-24.627604,
2270.212,-23.909374,
2269.248,-19.827604,
2268.283,-14.426042,
2267.319,-9.2588539,
2266.355,-9.109375,
2265.391,-15.067187,
2264.426,-20.250521,
2263.462,-19.143229,
2262.498,-15.548959,
2261.534,-13.33125,
2260.570,-12.4125,
2259.605,-16.19323,
2258.641,-21.308332,
2257.677,-17.385937,
2256.713,-8.7515621,
2255.748,-3.0958333,
2254.784,0.99583334,
2253.820,6.6177082,
2252.856,11.827604,
2251.891,12.594791,
2250.927,9.1000004,
2249.963,5.9770832,
2248.999,5.2406249,
2248.035,4.0734377,
2247.070,1.66875,
2246.106,-3.4302084,
2245.142,-16.452084,
2244.178,-29.923958,
2243.213,-32.107811,
2242.249,-25.097395,
2241.285,-13.934375,
2240.321,-5.4718752,
2239.356,-8.1994791,
2238.392,-20.483854,
2237.428,-31.546354,
2236.464,-37.4375,
2235.499,-35.981251,
2234.535,-24.140104,
2233.571,-12.054688,
2232.607,-6.7598958,
2231.643,-5.4635415,
2230.678,-9.0354166,
2229.714,-17.277605,
2228.750,-27.221874,
2227.786,-33.094791,
2226.821,-30.783333,
2225.857,-25.354166,
2224.893,-26.445833,
2223.929,-33.453648,
2222.964,-35.030727,
2222.000,-28.045313,
2221.036,-22.169271,
2220.072,-20.86927,
2219.108,-22.558332,
2218.143,-27.651562,
2217.179,-32.36198,
2216.215,-33.652603,
2215.251,-35.01302,
2214.286,-40.327602,
2213.322,-44.65625,
2212.358,-39.087502,
2211.394,-26.530209,
2210.429,-18.654688,
2209.465,-19.319271,
2208.501,-25.40052,
2207.537,-31.621876,
2206.572,-30.017187,
2205.608,-19.553646,
2204.644,-6.5953126,
2203.680,3.4078126,
2202.716,6.2692709,
2201.751,0.99947917,
2200.787,-7.140625,
2199.823,-11.677604,
2198.859,-12.440625,
2197.894,-9.9755211,
2196.930,-3.4697917,
2195.966,-0.0046875002,
2195.002,-3.6942708,
2194.037,-9.7130213,
2193.073,-18.218229,
2192.109,-27.7125,
2191.145,-32.634377,
2190.180,-30.71302,
2189.216,-21.785938,
2188.252,-8.9307289,
2187.288,1.8151041,
2186.324,8.5453129,
2185.359,12.791146,
2184.395,14.777083,
2183.431,14.489583,
2182.467,12.906771,
2181.502,8.3786459,
2180.538,0.12083333,
2179.574,-5.0635419,
2178.610,-5.1125002,
2177.645,-3.2723958,
2176.681,1.5109375,
2175.717,8.5708332,
2174.753,12.880729,
2173.789,13.697396,
2172.824,14.626562,
2171.860,16.756771,
2170.896,17.392708,
2169.932,13.239583,
2168.967,5.9468751,
2168.003,-1.8286458,
2167.039,-5.9890623,
2166.075,-0.103125,
2165.110,12.263021,
2164.146,20.751562,
2163.182,21.515104,
2162.218,17.098959,
2161.253,12.546354,
2160.289,14.919271,
2159.325,25.524479,
2158.361,36.257813,
2157.397,41.444271,
2156.432,42.716145,
2155.468,42.691666,
2154.504,41.401043,
2153.540,38.951561,
2152.575,36.565624,
2151.611,32.622917,
2150.647,25.839582,
2149.683,18.078646,
2148.718,12.767709,
2147.754,14.031771,
2146.790,22.53698,
2145.826,32.020313,
2144.862,36.663021,
2143.897,35.907291,
2142.933,31.435938,
2141.969,25.588541,
2141.005,17.341667,
2140.040,11.825521,
2139.076,18.360937,
2138.112,31.896355,
2137.148,41.378647,
2136.183,42.798439,
2135.219,35.446354,
2134.255,20.840626,
2133.291,12.645833,
2132.326,21.842709,
2131.362,30.470312,
2130.398,21.525,
2129.434,11.589063,
2128.470,14.691667,
2127.505,19.292187,
2126.541,18.685417,
2125.577,15.560938,
2124.613,13.826041,
2123.648,13.752084,
2122.684,8.9187498,
2121.720,-5.0635419,
2120.756,-17.80052,
2119.791,-14.752604,
2118.827,-1.665625,
2117.863,8.9578123,
2116.899,14.895833,
2115.935,18.166145,
2114.970,17.683855,
2114.006,7.1921873,
2113.042,-3.3166666,
2112.078,0.80729169,
2111.113,16.8125,
2110.149,28.32448,
2109.185,25.554688,
2108.221,17.138542,
2107.256,15.102083,
2106.292,18.057812,
2105.328,19.738543,
2104.364,21.666145,
2103.399,24.392187,
2102.435,19.980207,
2101.471,13.040625,
2100.507,9.5921879,
2099.543,3.1458333,
2098.578,-5.2593751,
2097.614,-5.6515627,
2096.650,4.5973959,
2095.686,15.788021,
2094.721,15.384896,
2093.757,7.8677082,
2092.793,11.522917,
2091.829,22.2125,
2090.864,18.692188,
2089.900,7.5510416,
2088.936,7.6187501,
2087.972,13.858334,
2087.008,12.584375,
2086.043,4.0390625,
2085.079,1.9526042,
2084.115,10.430208,
2083.151,17.508854,
2082.186,17.001562,
2081.222,13.226563,
2080.258,3.3890624,
2079.294,-6.3296876,
2078.329,3.5703125,
2077.365,26.191145,
2076.401,37.823437,
2075.437,37.668751,
2074.472,29.856251,
2073.508,16.930208,
2072.544,6.3802085,
2071.580,3.2072916,
2070.616,4.6802082,
2069.651,7.1468749,
2068.687,10.116667,
2067.723,12.767187,
2066.759,16.686979,
2065.794,23.417187,
2064.830,29.289583,
2063.866,31.844791,
2062.902,33.414585,
2061.937,33.35677,
2060.973,29.466667,
2060.009,26.079166,
2059.045,27.819271,
2058.081,31.576563,
2057.116,32.004688,
2056.152,28.448437,
2055.188,23.146355,
2054.224,18.829166,
2053.259,20.095312,
2052.295,28.395313,
2051.331,35.518749,
2050.367,31.991667,
2049.402,22.277082,
2048.438,19.617708,
2047.474,26.814062,
2046.510,36.309895,
2045.545,42.84375,
2044.581,45.154686,
2043.617,41.875,
2042.653,34.326042,
2041.689,29.122917,
2040.724,31.191668,
2039.760,41.147396,
2038.796,52.4375,
2037.832,50.239063,
2036.867,40.313541,
2035.903,42.376041,
2034.939,48.74427,
2033.975,45.328125,
2033.010,34.387501,
2032.046,23.369791,
2031.082,15.740104,
2030.118,17.257813,
2029.154,32.711979,
2028.189,49.035938,
2027.225,46.372395,
2026.261,33.587502,
2025.297,37.609375,
2024.332,56.139061,
2023.368,62.458855,
2022.404,57.185417,
2021.440,50.989582,
2020.475,45.501564,
2019.511,41.433853,
2018.547,40.977085,
2017.583,44.592186,
2016.618,51.218227,
2015.654,60.038021,
2014.690,70.342705,
2013.726,79.031769,
2012.762,78.836456,
2011.797,69.484894,
2010.833,59.555729,
2009.869,53.106251,
2008.905,51.679688,
2007.940,56.054688,
2006.976,59.990105,
2006.012,59.166145,
2005.048,56.579166,
2004.083,57.811977,
2003.119,63.488541,
2002.155,67.135414,
2001.191,62.754688,
2000.227,54.691147,
1999.262,50.500523,
1998.298,46.746876,
1997.334,39.555729,
1996.370,35.927605,
1995.405,47.489582,
1994.441,65.897919,
1993.477,72.147919,
1992.513,63.269791,
1991.548,49.782291,
1990.584,41.775002,
1989.620,40.70052,
1988.656,44.142189,
1987.691,48.405209,
1986.727,48.794792,
1985.763,45.492188,
1984.799,51.566666,
1983.835,68.883858,
1982.870,77.291664,
1981.906,75.207809,
1980.942,68.448959,
1979.978,58.197395,
1979.013,52.43021,
1978.049,58.821354,
1977.085,69.515625,
1976.121,71.121353,
1975.156,65.258858,
1974.192,60.779167,
1973.228,59.577602,
1972.264,59.545311,
1971.300,60.155209,
1970.335,63.567188,
1969.371,69.804169,
1968.407,72.894791,
1967.443,69.631248,
1966.478,65.059898,
1965.514,64.308334,
1964.550,66.820313,
1963.586,68.75,
1962.621,68.779686,
1961.657,72.03698,
1960.693,85.046356,
1959.729,97.086983,
1958.764,85.247917,
1957.800,65.586456,
1956.836,74.140625,
1955.872,93.924477,
1954.908,97.943748,
1953.943,90.446877,
1952.979,83.466667,
1952.015,81.171875,
1951.051,79.695831,
1950.086,77.168747,
1949.122,76.70417,
1948.158,77.947914,
1947.194,78.407814,
1946.229,85.203125,
1945.265,96.964584,
1944.301,97.350517,
1943.337,90.033333,
1942.373,89.89167,
1941.408,97.383858,
1940.444,103.64323,
1939.480,102.67709,
1938.516,99.356247,
1937.551,103.24635,
1936.587,113.64948,
1935.623,120.62708,
1934.659,120.43958,
1933.694,118.01041,
1932.730,114.76458,
1931.766,106.03698,
1930.802,89.859375,
1929.837,78.476044,
1928.873,88.773438,
1927.909,108.24844,
1926.945,122.81406,
1925.981,131.64427,
1925.016,134.29532,
1924.052,133.15677,
1923.088,130.89218,
1922.124,125.01302,
1921.159,116.35989,
1920.195,118.33177,
1919.231,127.29375,
1918.267,132.56718,
1917.302,140.52135,
1916.338,145.23698,
1915.374,141.27292,
1914.410,133.16667,
1913.446,123.19636,
1912.481,114.84792,
1911.517,110.74271,
1910.553,110.81145,
1909.589,115.72656,
1908.624,125.91823,
1907.660,136.20885,
1906.696,141.22865,
1905.732,140.12344,
1904.767,132.35989,
1903.803,123.93437,
1902.839,126.2599,
1901.875,135.87552,
1900.910,142.9099,
1899.946,147.19792,
1898.982,143.49323,
1898.018,132.45729,
1897.054,128.89166,
1896.089,139.90729,
1895.125,153.33594,
1894.161,158.02448,
1893.197,158.92448,
1892.232,160.19167,
1891.268,159.33229,
1890.304,156.46355,
1889.340,154.34271,
1888.375,148.33542,
1887.411,138.63594,
1886.447,133.13126,
1885.483,132.42604,
1884.519,136.22031,
1883.554,146.29739,
1882.590,158.97969,
1881.626,165.20261,
1880.662,162.3875,
1879.697,154.88542,
1878.733,145.59323,
1877.769,139.81041,
1876.805,144.16667,
1875.840,152.64218,
1874.876,155.48177,
1873.912,155.08594,
1872.948,152.44792,
1871.983,147,
1871.019,147.11563,
1870.055,156,
1869.091,166.88698,
1868.127,175.66458,
1867.162,183.26979,
1866.198,184.63126,
1865.234,180.68437,
1864.270,175.12813,
1863.305,168.94427,
1862.341,166.87656,
1861.377,166.28697,
1860.413,159.77553,
1859.448,148.72447,
1858.484,142.58907,
1857.520,146.58281,
1856.556,154.18178,
1855.591,154.49323,
1854.627,148.72812,
1853.663,149.8177,
1852.699,158.34375,
1851.735,156.96562,
1850.770,142.575,
1849.806,137.64063,
1848.842,152.50261,
1847.878,171.48958,
1846.913,181.93594,
1845.949,184.23958,
1844.985,177.90886,
1844.021,168.66978,
1843.056,165.36771,
1842.092,170.61302,
1841.128,175.70364,
1840.164,174.9375,
1839.200,173.09636,
1838.235,174.58281,
1837.271,176.69011,
1836.307,176.98593,
1835.343,176.74739,
1834.378,179.1026,
1833.414,185.84219,
1832.450,189.85312,
1831.486,184.66042,
1830.521,177.55052,
1829.557,178.20416,
1828.593,183.18021,
1827.629,184.91719,
1826.664,185.30417,
1825.700,188.40625,
1824.736,189.75572,
1823.772,187.98906,
1822.808,189.84427,
1821.843,194.90469,
1820.879,198.72708,
1819.915,200.81979,
1818.951,202.59114,
1817.986,203.35365,
1817.022,196.05885,
1816.058,183.77916,
1815.094,178.51563,
1814.129,184.23802,
1813.165,193.49583,
1812.201,199.79062,
1811.237,202.10469,
1810.273,198.77344,
1809.308,190.59479,
1808.344,184.19583,
1807.380,184.56927,
1806.416,191.05678,
1805.451,201.08646,
1804.487,211.80833,
1803.523,222.03386,
1802.559,229.81876,
1801.594,228.67343,
1800.630,218.24896,
1799.666,206.03906,
1798.702,198.01302,
1797.737,192.12656,
1796.773,189.69427,
1795.809,193.19167,
1794.845,202.3073,
1793.881,213.60521,
1792.916,214.39011,
1791.952,202.78854,
1790.988,185.43178,
1790.024,169.15364,
1789.059,166.42604,
1788.095,182.99323,
1787.131,204.49428,
1786.167,210.90573,
1785.202,200.55469,
1784.238,187.95833,
1783.274,181.31198,
1782.310,179.6823,
1781.346,185.80937,
1780.381,194.77916,
1779.417,193.96979,
1778.453,187.16771,
1777.489,180.44322,
1776.524,172.85886,
1775.560,174.77916,
1774.596,186.85782,
1773.632,196.90677,
1772.667,198.35156,
1771.703,197.57344,
1770.739,203.4323,
1769.775,217.13385,
1768.810,230.66458,
1767.846,236.61198,
1766.882,235.81459,
1765.918,231.18959,
1764.954,223.08125,
1763.989,215.25781,
1763.025,214.70261,
1762.061,224.02396,
1761.097,235.47812,
1760.132,237.42969,
1759.168,226.36147,
1758.204,214.07761,
1757.240,214.35521,
1756.275,223.3625,
1755.311,230.10989,
1754.347,233.34114,
1753.383,235.17552,
1752.419,235.30521,
1751.454,238.50833,
1750.490,247.72188,
1749.526,252.15364,
1748.562,242.73438,
1747.597,226.66197,
1746.633,215.95885,
1745.669,215.18333,
1744.705,225.45103,
1743.740,245.08229,
1742.776,263.58957,
1741.812,267.55521,
1740.848,259.67657,
1739.883,249.34531,
1738.919,242.75,
1737.955,246.0974,
1736.991,253.08855,
1736.027,256.33438,
1735.062,255.17604,
1734.098,252.41093,
1733.134,252.36458,
1732.170,256.60519,
1731.205,263.12189,
1730.241,266.65781,
1729.277,261.94531,
1728.313,250.40053,
1727.348,241.14218,
1726.384,241.96666,
1725.420,251.51459,
1724.456,264.62863,
1723.492,276.73593,
1722.527,282.99271,
1721.563,280.17606,
1720.599,267.10834,
1719.635,254.31459,
1718.670,250.30937,
1717.706,253.34219,
1716.742,256.84793,
1715.778,257.38959,
1714.813,257.17084,
1713.849,258.71094,
1712.885,261.7677,
1711.921,264.41928,
1710.956,265.02969,
1709.992,265.6474,
1709.028,271.06927,
1708.064,278.66354,
1707.100,280.07813,
1706.135,277.25833,
1705.171,274.84479,
1704.207,277.51874,
1703.243,284.88385,
1702.278,291.52084,
1701.314,295.70676,
1700.350,298.77396,
1699.386,299.27032,
1698.421,297.29532,
1697.457,296.50311,
1696.493,296.98593,
1695.529,295.72968,
1694.565,290.99167,
1693.600,283.51355,
1692.636,277.93906,
1691.672,281.57083,
1690.708,293.28281,
1689.743,305.07394,
1688.779,311.88177,
1687.815,313.36823,
1686.851,308.74689,
1685.886,299.74896,
1684.922,292.01144,
1683.958,287.28595,
1682.994,286.82657,
1682.029,291.83334,
1681.065,300.77136,
1680.101,309.94739,
1679.137,313.91302,
1678.173,311.1297,
1677.208,303.50677,
1676.244,291.63644,
1675.280,281.28543,
1674.316,285.25208,
1673.351,305.26563,
1672.387,323.71927,
1671.423,327.63489,
1670.459,327.02655,
1669.494,324.63177,
1668.530,320.52707,
1667.566,316.90207,
1666.602,311.78543,
1665.638,305.35364,
1664.673,299.3172,
1663.709,298.36563,
1662.745,305.11563,
1661.781,315.52292,
1660.816,322.87708,
1659.852,325.01407,
1658.888,324.93124,
1657.924,324.54843,
1656.959,321.7323,
1655.995,316.41199,
1655.031,311.82239,
1654.067,312.52814,
1653.102,320.82394,
1652.138,336.18854,
1651.174,353.79428,
1650.210,367.06458,
1649.246,374.36197,
1648.281,374.93124,
1647.317,370.74426,
1646.353,364.96667,
1645.389,357.73334,
1644.424,348.27917,
1643.460,339.4198,
1642.496,335.06458,
1641.532,335.38959,
1640.567,348.74478,
1639.603,373.38177,
1638.639,387.0578,
1637.675,391.71457,
1636.711,378.37918,
1635.746,350.01926,
1634.782,329.64584,
1633.818,326.31509,
1632.854,328.87137,
1631.889,326.07864,
1630.925,319.62137,
1629.961,316.49167,
1628.997,317.17606,
1628.032,318.29791,
1627.068,320.10156,
1626.104,321.17709,
1625.140,315.47449,
1624.175,309.49948,
1623.211,316.6828,
1622.247,328.22501,
1621.283,328.98593,
1620.319,322.08957,
1619.354,322.06406,
1618.390,334.70624,
1617.426,347.73801,
1616.462,344.71771,
1615.497,325.42917,
1614.533,306.41406,
1613.569,300.02762,
1612.605,302.56406,
1611.640,310.38644,
1610.676,321.67969,
1609.712,328.58282,
1608.748,330.44791,
1607.784,317.90729,
1606.819,295.89584,
1605.855,289.09949,
1604.891,304.87863,
1603.927,324.49741,
1602.962,328.27292,
1601.998,317.24426,
1601.034,305.92761,
1600.070,302.28751,
1599.105,304.59949,
1598.141,312.54791,
1597.177,321.01563,
1596.213,314.98126,
1595.248,301.95676,
1594.284,299.14792,
1593.320,301.75259,
1592.356,303.0047,
1591.392,301.53595,
1590.427,300.45313,
1589.463,302.36615,
1588.499,305.86667,
1587.535,306.90155,
1586.570,303.18958,
1585.606,296.72186,
1584.642,291.25311,
1583.678,287.38593,
1582.713,283.95886,
1581.749,282.7052,
1580.785,289.11145,
1579.821,298.06772,
1578.857,296.67084,
1577.892,289.16406,
1576.928,284.7948,
1575.964,285.55157,
1575.000,287.22812,
1574.035,286.34323,
1573.071,285.85468,
1572.107,294.5448,
1571.143,315.89948,
1570.178,334.13022,
1569.214,323.25833,
1568.250,297.58438,
1567.286,293.6026,
1566.321,299.72864,
1565.357,298.7276,
1564.393,293.23019,
1563.429,288.92761,
1562.465,287.60519,
1561.500,291.3172,
1560.536,301.73178,
1559.572,315.39896,
1558.608,325.31146,
1557.643,328.13699,
1556.679,324.56613,
1555.715,311.84323,
1554.751,296.90988,
1553.786,303.71667,
1552.822,324.99323,
1551.858,336.83698,
1550.894,338.8573,
1549.929,333.82031,
1548.965,320.29428,
1548.001,307.88074,
1547.037,310.82083,
1546.073,324.72501,
1545.108,328.375,
1544.144,313.99323,
1543.180,299.1427,
1542.216,299.03699,
1541.251,305.72604,
1540.287,313.08801,
1539.323,320.92032,
1538.359,329.24219,
1537.394,337.30313,
1536.430,339.55624,
1535.466,335.92395,
1534.502,333.10208,
1533.538,335.37344,
1532.573,338.28958,
1531.609,333.73334,
1530.645,321.99219,
1529.681,313.49426,
1528.716,312.73749,
1527.752,311.4953,
1526.788,310.56198,
1525.824,310.99844,
1524.859,304.47083,
1523.895,293.2276,
1522.931,298.18958,
1521.967,325.99896,
1521.002,355.29636,
1520.038,366.89584,
1519.074,368.9422,
1518.110,366.25311,
1517.146,358.19061,
1516.181,349.3703,
1515.217,345.56406,
1514.253,343.64999,
1513.289,339.90781,
1512.324,334.61615,
1511.360,326.47031,
1510.396,315.12137,
1509.432,307.61197,
1508.467,310.70468,
1507.503,322.93906,
1506.539,341.7547,
1505.575,359.71875,
1504.611,353.55313,
1503.646,326.65781,
1502.682,310.69168,
1501.718,315.70364,
1500.754,328.54376,
1499.789,335.78021,
1498.825,337.42395,
1497.861,339.32709,
1496.897,343.72656,
1495.932,351.45834,
1494.968,365.10678,
1494.004,378.98907,
1493.040,374.88855,
1492.075,361.80106,
1491.111,371.70105,
1490.147,391.48907,
1489.183,403.20782,
1488.219,404.45468,
1487.254,397.32657,
1486.290,384.72134,
1485.326,376.64481,
1484.362,387.57553,
1483.397,417.63385,
1482.433,440.32553,
1481.469,429.54636,
1480.505,404.99792,
1479.540,403.65469,
1478.576,416.92032,
1477.612,450.54428,
1476.648,495.37552,
1475.684,518.6521,
1474.719,514.95471,
1473.755,510.83594,
1472.791,530.27655,
1471.827,571.29791,
1470.862,617.15155,
1469.898,660.77032,
1468.934,706.20782,
1467.970,754.48175,
1467.005,816.67554,
1466.041,925.70001,
1465.077,1066.7339,
1464.113,1223.0104,
1463.148,1397.4182,
1462.184,1601.6495,
1461.220,1836.6755,
1460.256,2090.6438,
1459.292,2351.7749,
1458.327,2613.5146,
1457.363,2834.6406,
1456.399,2993.0208,
1455.435,3075.7551,
1454.470,3055.563,
1453.506,2960.9692,
1452.542,2821.9011,
1451.578,2643.5334,
1450.613,2473.1223,
1449.649,2329.2214,
1448.685,2184.2063,
1447.721,2031.175,
1446.757,1878.3334,
1445.792,1728.7578,
1444.828,1579.825,
1443.864,1444.7823,
1442.900,1330.2365,
1441.935,1242.8911,
1440.971,1188.5021,
1440.007,1157.938,
1439.043,1132.5844,
1438.078,1105.2385,
1437.114,1088.7985,
1436.150,1099.3677,
1435.186,1134.1115,
1434.221,1190.5406,
1433.257,1276.4807,
1432.293,1337.3688,
1431.329,1380.6239,
1430.365,1356.9911,
1429.400,1258.7094,
1428.436,1122.3739,
1427.472,979.21564,
1426.508,840.64008,
1425.543,716.15051,
1424.579,620.20782,
1423.615,541.26508,
1422.651,481.625,
1421.686,444.7099,
1420.722,414.73959,
1419.758,392.99689,
1418.794,379.57761,
1417.830,376.11874,
1416.865,377.77292,
1415.901,380.21405,
1414.937,380.54269,
1413.973,373.64896,
1413.008,360.69479,
1412.044,350.93854,
1411.080,350.55887,
1410.116,351.3125,
1409.151,348.24426,
1408.187,347.1651,
1407.223,349.65936,
1406.259,350.10938,
1405.294,344.1922,
1404.330,332.86459,
1403.366,322.13022,
1402.402,320.87189,
1401.438,329.86874,
1400.473,339.57083,
1399.509,342.24167,
1398.545,337.13074,
1397.581,328.32343,
1396.616,324.86511,
1395.652,331.73126,
1394.688,343.2453,
1393.724,349.42136,
1392.759,345.97656,
1391.795,335.34793,
1390.831,319.56094,
1389.867,307.09219,
1388.903,315.96979,
1387.938,331.47708,
1386.974,339.94635,
1386.010,339.89011,
1385.046,336.50311,
1384.081,336.57916,
1383.117,344.69949,
1382.153,361.375,
1381.189,383.75522,
1380.224,407.98178,
1379.260,432.79269,
1378.296,456.54428,
1377.332,472.89584,
1376.367,487.54428,
1375.403,515.64325,
1374.439,555.48334,
1373.475,595.83386,
1372.511,634.33179,
1371.546,670.62292,
1370.582,690.05835,
1369.618,689.47034,
1368.654,680.22241,
1367.689,669.41565,
1366.725,663.39221,
1365.761,668.49896,
1364.797,678.92865,
1363.832,689.00262,
1362.868,702.06354,
1361.904,732.44269,
1360.940,791.72186,
1359.976,874.64636,
1359.011,979.99896,
1358.047,1101.1698,
1357.083,1173.7,
1356.119,1217.1656,
1355.154,1228.7703,
1354.190,1205.8739,
1353.226,1149.9865,
1352.262,1063.7943,
1351.297,957.35938,
1350.333,854.16565,
1349.369,775.16144,
1348.405,703.53802,
1347.440,649.763,
1346.476,611.96198,
1345.512,583.10883,
1344.548,565.01093,
1343.584,561.00366,
1342.619,570.2594,
1341.655,584.13385,
1340.691,594.31976,
1339.727,604.4375,
1338.762,621.31873,
1337.798,645.86353,
1336.834,674.60364,
1335.870,709.95416,
1334.905,760.5719,
1333.941,833.80157,
1332.977,927.87811,
1332.013,1047.2224,
1331.049,1196.9244,
1330.084,1378.4933,
1329.120,1610.011,
1328.156,1890.5563,
1327.192,2122.9866,
1326.227,2328.7979,
1325.263,2418.1099,
1324.299,2376.2542,
1323.335,2236.2214,
1322.370,2024.7516,
1321.406,1766.5375,
1320.442,1508.8729,
1319.478,1300.0745,
1318.513,1109.8364,
1317.549,967.40991,
1316.585,868.31873,
1315.621,791.80676,
1314.657,734.04218,
1313.692,679.08228,
1312.728,625.55676,
1311.764,578.46613,
1310.800,537.90991,
1309.835,507.0401,
1308.871,490.70313,
1307.907,486.34116,
1306.943,477.85626,
1305.978,461.46512,
1305.014,452.85416,
1304.050,466.21353,
1303.086,498.35104,
1302.122,535.23645,
1301.157,567.57867,
1300.193,590.62134,
1299.229,578.60101,
1298.265,542.9552,
1297.300,520.16095,
1296.336,503.44009,
1295.372,497.72397,
1294.408,501.62448,
1293.443,511.19894,
1292.479,524.96509,
1291.515,541.37604,
1290.551,552.0932,
1289.586,545.45416,
1288.622,525.4552,
1287.658,493.21927,
1286.694,449.94843,
1285.730,416.99792,
1284.765,399.19739,
1283.801,386.95731,
1282.837,370.81042,
1281.873,352.8302,
1280.908,343.17499,
1279.944,340.43958,
1278.980,324.1698,
1278.016,297.07813,
1277.051,279.84949,
1276.087,277.5224,
1275.123,283.53751,
1274.159,294.75833,
1273.195,307.95364,
1272.230,310.05261,
1271.266,284.98334,
1270.302,252.88542,
1269.338,256.13803,
1268.373,273.51874,
1267.409,280.84634,
1266.445,280.16614,
1265.481,280.24271,
1264.516,285.22345,
1263.552,290.57709,
1262.588,288.05365,
1261.624,277.08282,
1260.659,269.67865,
1259.695,278.80676,
1258.731,293.96512,
1257.767,301.4599,
1256.803,302.30573,
1255.838,308.11926,
1254.874,324.37396,
1253.910,351.03021,
1252.946,392.05157,
1251.981,443.14374,
1251.017,466.05051,
1250.053,468.86511,
1249.089,450.94635,
1248.124,414.25156,
1247.160,374.50989,
1246.196,344.53229,
1245.232,323.80573,
1244.268,305.25937,
1243.303,289.53177,
1242.339,278.45782,
1241.375,270.63022,
1240.411,266.83646,
1239.446,262.87918,
1238.482,257.8172,
1237.518,255.53125,
1236.554,257.75104,
1235.589,260.95157,
1234.625,260.45572,
1233.661,256.97449,
1232.697,251.73489,
1231.732,247.54115,
1230.768,250.8974,
1229.804,264.03436,
1228.840,280.37292,
1227.876,290.14322,
1226.911,289.65314,
1225.947,286.41824,
1224.983,293.85886,
1224.019,314.89896,
1223.054,359.43021,
1222.090,418.75311,
1221.126,483.4328,
1220.162,551.2276,
1219.197,620.362,
1218.233,691.81976,
1217.269,765.4682,
1216.305,831.43591,
1215.340,880.6026,
1214.376,894.68176,
1213.412,863.31561,
1212.448,804.44586,
1211.484,740.46509,
1210.519,675.03644,
1209.555,606.49323,
1208.591,534.54999,
1207.627,463.34738,
1206.662,420.83542,
1205.698,393.40936,
1204.734,368.93958,
1203.770,351.82291,
1202.805,333.39999,
1201.841,308.78751,
1200.877,283.59427,
1199.913,267.65207,
1198.949,263.63541,
1197.984,262.42709,
1197.020,256.29428,
1196.056,249.48228,
1195.092,242.71979,
1194.127,239.24896,
1193.163,240.91354,
1192.199,244.23647,
1191.235,240.0401,
1190.270,220.92656,
1189.306,196.32448,
1188.342,187.32916,
1187.378,195.75572,
1186.413,209.72604,
1185.449,220.95522,
1184.485,225.95,
1183.521,224.22604,
1182.557,217.8026,
1181.592,211.06094,
1180.628,208.02499,
1179.664,208.03906,
1178.700,214.74896,
1177.735,226.56302,
1176.771,239.90157,
1175.807,253.95833,
1174.843,270.05521,
1173.878,288.99637,
1172.914,311.92499,
1171.950,348.18228,
1170.986,401.74689,
1170.022,476.55417,
1169.057,574.50781,
1168.093,693.53748,
1167.129,829.31512,
1166.165,970.49219,
1165.200,1092.0536,
1164.236,1169.3911,
1163.272,1222.5818,
1162.308,1225.7723,
1161.343,1190.7891,
1160.379,1141.6937,
1159.415,1071.3578,
1158.451,1007.3005,
1157.486,970.7677,
1156.522,960.29633,
1155.558,978.5318,
1154.594,1026.0558,
1153.630,1102.5308,
1152.665,1203.3938,
1151.701,1326.6198,
1150.737,1469.0818,
1149.773,1619.7036,
1148.808,1741.8635,
1147.844,1797.3953,
1146.880,1800.0667,
1145.916,1705.326,
1144.951,1533.8917,
1143.987,1350.1776,
1143.023,1142.4828,
1142.059,949.36096,
1141.095,789.487,
1140.130,657.39636,
1139.166,552.04742,
1138.202,476.36197,
1137.238,420.04376,
1136.273,370.00311,
1135.309,326.42447,
1134.345,286.08282,
1133.381,253.1474,
1132.416,232.64844,
1131.452,224.11302,
1130.488,220.78854,
1129.524,208.68073,
1128.559,192.16145,
1127.595,180.97552,
1126.631,176.15416,
1125.667,171.16197,
1124.703,162.03645,
1123.738,150.03958,
1122.774,138.50626,
1121.810,128.45833,
1120.846,123.0875,
1119.881,126.68855,
1118.917,131.56822,
1117.953,129.26146,
1116.989,121.78333,
1116.024,117.69688,
1115.060,122.00573,
1114.096,128.17865,
1113.132,123.32083,
1112.168,116.28698,
1111.203,120.79792,
1110.239,131.76407,
1109.275,139.00156,
1108.311,137.43906,
1107.346,129.61041,
1106.382,122.33281,
1105.418,121.20729,
1104.454,129.46875,
1103.489,146.10782,
1102.525,168.49583,
1101.561,195.2776,
1100.597,223.0052,
1099.632,242.58333,
1098.668,246.9901,
1097.704,244.40886,
1096.740,240.20833,
1095.776,231.34323,
1094.811,215.8526,
1093.847,193.83073,
1092.883,173.06094,
1091.919,160.24323,
1090.954,155.1651,
1089.990,150.65105,
1089.026,140.51146,
1088.062,125.18073,
1087.097,106.96094,
1086.133,88.798958,
1085.169,76.055206,
1084.205,69.821358,
1083.241,67.636978,
1082.276,67.342186,
1081.312,68.631248,
1080.348,67.926041,
1079.384,65.616669,
1078.419,60.521873,
1077.455,54.210938,
1076.491,49.934895,
1075.527,50.405727,
1074.562,55.802605,
1073.598,63.401043,
1072.634,68.166145,
1071.670,67.853127,
1070.705,61.990105,
1069.741,52.079166,
1068.777,47.667709,
1067.813,55.685936,
1066.849,70.606773,
1065.884,74.865105,
1064.920,72.522392,
1063.956,69.195313,
1062.992,62.105728,
1062.027,55.38073,
1061.063,52.81979,
1060.099,54.753647,
1059.135,58.642708,
1058.170,62.671352,
1057.206,67.738541,
1056.242,74.272392,
1055.278,81.690102,
1054.314,88.456772,
1053.349,94.808334,
1052.385,104.06406,
1051.421,119.15417,
1050.457,136.28125,
1049.492,141.38229,
1048.528,139.95677,
1047.564,148.22708,
1046.600,167.40053,
1045.635,192.20157,
1044.671,218.53073,
1043.707,248.54897,
1042.743,291.4776,
1041.778,353.54999,
1040.814,411.98282,
1039.850,441.43387,
1038.886,453.84116,
1037.922,467.22916,
1036.957,488.09531,
1035.993,512.36719,
1035.029,540.02081,
1034.065,568.56305,
1033.100,591.38647,
1032.136,612.57501,
1031.172,611.83539,
1030.208,580.2818,
1029.243,525.18958,
1028.279,461.01144,
1027.315,395.08801,
1026.351,331.60364,
1025.387,281.85938,
1024.422,242.62604,
1023.458,215.99271,
1022.494,198.20677,
1021.530,179.95729,
1020.565,153.92552,
1019.601,127.63281,
1018.637,114.88021,
1017.673,109.78385,
1016.708,103.13073,
1015.744,95.082809,
1014.780,90.263023,
1013.816,92.967186,
1012.851,103.08334,
1011.887,113.45989,
1010.923,114.41354,
1009.959,113.04375,
1008.995,117.60886,
1008.030,125.69115,
1007.066,128.45885,
1006.102,122.02239,
1005.138,117.62605,
1004.173,140.77344,
1003.209,173.8401,
1002.245,190.73282,
1001.281,205.08022,
1000.316,235.44167,
999.352,288.6073,
998.388,359.69583,
997.424,443.90521,
996.460,540.11664,
995.495,626.01929,
994.531,688.4104,
993.567,722.35571,
992.603,709.52814,
991.638,646.50159,
990.674,557.78333,
989.710,479.9823,
988.746,398.43698,
987.781,337.41147,
986.817,283.04791,
985.853,235.51407,
984.889,198.98541,
983.924,174.2849,
982.960,157.44635,
981.996,145.4651,
981.032,136.10834,
980.068,129.38907,
979.103,129.22969,
978.139,140.71666,
977.175,168.20261,
976.211,213.69479,
975.246,275.7901,
974.282,351.5578,
973.318,462.53699,
972.354,600.09375,
971.389,737.88647,
970.425,872.92761,
969.461,985.99219,
968.497,1031.7985,
967.533,1024.7516,
966.568,950.65833,
965.604,816.17395,
964.640,668.36456,
963.676,537.52289,
962.711,429.00052,
961.747,336.51355,
960.783,266.37189,
959.819,214.67188,
958.854,181.4099,
957.890,166.80989,
956.926,150.4026,
955.962,128.38698,
954.997,109.80156,
954.033,102.33907,
953.069,97.126564,
952.105,89.816666,
951.141,89.245316,
950.176,90.688545,
949.212,89.152603,
948.248,85.441666,
947.284,85.324997,
946.319,93.205727,
945.355,103.20104,
944.391,108.42396,
943.427,112.88906,
942.462,125.64896,
941.498,150.46042,
940.534,186.73489,
939.570,234.02396,
938.606,292.89218,
937.641,333.58646,
936.677,360.70624,
935.713,370.18958,
934.749,364.37241,
933.784,344.81824,
932.820,308.68073,
931.856,254.29323,
930.892,201.19583,
929.927,162.73177,
928.963,127.15417,
927.999,92.095314,
927.035,59.408333,
926.070,31.507292,
925.106,8.8979168,
924.142,-3.9682291,
923.178,-1.428125,
922.214,9.3270836,
921.249,11.510417,
920.285,1.8135417,
919.321,-9.8666668,
918.357,-9.7223959,
917.392,4.1869793,
916.428,14.001041,
915.464,13.073958,
914.500,7.9541669,
913.535,6.203125,
912.571,10.616667,
911.607,16.88073,
910.643,15.873438,
909.679,7.8010416,
908.714,2.5885417,
907.750,-1.8817708,
906.786,-4.9697919,
905.822,-3.04375,
904.857,8.0005207,
903.893,27.695833,
902.929,47.22604,
901.965,64.86927,
901.000,83.239586,
900.036,107.71927,
899.072,143.40364,
898.108,190.68021,
897.143,241.15729,
896.179,278.7547,
895.215,300.37918,
894.251,297.21405,
893.287,276.03958,
892.322,244.4099,
891.358,204.6974,
890.394,156.16771,
889.430,127.44167,
888.465,107.10156,
887.501,94.292191,
886.537,87.782295,
885.573,82.877083,
884.608,74.407295,
883.644,60.621876,
882.680,43.831249,
881.716,29.927084,
880.751,24.440104,
879.787,30.069792,
878.823,43.178123,
877.859,54.558334,
876.895,53.852085,
875.930,44.761459,
874.966,47.068748,
874.002,57.38073,
873.038,67.246353,
872.073,74.053642,
871.109,77.570831,
870.145,76.04583,
869.181,69.753647,
868.216,65.780731,
867.252,67.057816,
866.288,74.805733,
865.324,88.607292,
864.360,104.9052,
863.395,116.86719,
862.431,118.41302,
861.467,115.30052,
860.503,106.41406,
859.538,95.751564,
858.574,98.050522,
857.610,121.38073,
856.646,153.92865,
855.681,170.61302,
854.717,179.30624,
853.753,195.89063,
852.789,222.15573,
851.824,252.01511,
850.860,278.07657,
849.896,297.07709,
848.932,312.21875,
847.968,327.88855,
847.003,348.48856,
846.039,381.57135,
845.075,431.26199,
844.111,503.09064,
843.146,606.77863,
842.182,735.35675,
841.218,945.31561,
840.254,1215.026,
839.289,1506.5515,
838.325,1809.5402,
837.361,2073.9744,
836.397,2151.8225,
835.433,2000.5547,
834.468,1769.7245,
833.504,1507.1432,
832.540,1241.3927,
831.576,1020.5984,
830.611,873.19794,
829.647,762.09894,
828.683,677.67291,
827.719,620.26666,
826.754,573.28961,
825.790,535.64325,
824.826,500.77655,
823.862,459.78281,
822.897,422.11511,
821.933,402.50574,
820.969,393.88959,
820.005,385.85886,
819.041,374.76718,
818.076,365.39999,
817.112,368.17551,
816.148,390.875,
815.184,429.22501,
814.219,474.7453,
813.255,527.29065,
812.291,592.9328,
811.327,679.58124,
810.362,800.46301,
809.398,1018.2589,
808.434,1310.7369,
807.470,1679.886,
806.506,2123.0583,
805.541,2521.2786,
804.577,2757.4958,
803.613,2848.7522,
802.649,2707.3005,
801.684,2334.6819,
800.720,1894.8619,
799.756,1484.5333,
798.792,1130.613,
797.827,831.47968,
796.863,645.04895,
795.899,534.26874,
794.935,432.0224,
793.970,357.87292,
793.006,301.22397,
792.042,252.39218,
791.078,212.75313,
790.114,178.70103,
789.149,158.59166,
788.185,139.77292,
787.221,122.68698,
786.257,110.43542,
785.292,104.99948,
784.328,104.29063,
783.364,98.072395,
782.400,79.159897,
781.435,57.381248,
780.471,43.289585,
779.507,40.149479,
778.543,43.696877,
777.579,47.219273,
776.614,49.359375,
775.650,43.758335,
774.686,32.370834,
773.722,20.755209,
772.757,13.15625,
771.793,10.682813,
770.829,15.795313,
769.865,25.758854,
768.900,31.456249,
767.936,29.547396,
766.972,21.758333,
766.008,12.448958,
765.043,5.2375002,
764.079,0.0093750004,
763.115,-3.04375,
762.151,-2.8192708,
761.187,4.1583333,
760.222,17.353125,
759.258,29.004168,
758.294,20.57448,
757.330,1.1411458,
756.365,-8.5234375,
755.401,-8.9796877,
754.437,-7.6052084,
753.473,-11.595052,
752.508,-21.614063,
751.544,-23.478645,
750.580,-12.953646,
749.616,-0.21666667,
748.652,8.1799479,
747.687,10.076563,
746.723,6.4182291,
745.759,-4.1888022,
744.795,-15.117969,
743.830,-16.117188,
742.866,-11.398698,
741.902,-6.6322918,
740.938,-5.2984376,
739.973,-6.4312501,
739.009,-11.738542,
738.045,-17.820313,
737.081,-21.879948,
736.116,-23.549219,
735.152,-22.810417,
734.188,-19.401823,
733.224,-12.503906,
732.260,-4.1648436,
731.295,0.24869792,
730.331,-0.47734374,
729.367,-4.21875,
728.403,-7.7666669,
727.438,-9.713542,
726.474,-12.778646,
725.510,-15.654428,
724.546,-13.530729,
723.581,-7.2091146,
722.617,-1.7039063,
721.653,-3.2768228,
720.689,-9.8294268,
719.725,-15.672656,
718.760,-22.123438,
717.796,-29.051823,
716.832,-34.569271,
715.868,-35.646355,
714.903,-29.189583,
713.939,-10.807813,
712.975,7.0864582,
712.011,8.8822918,
711.046,-4.4914064,
710.082,-20.973438,
709.118,-25.237499,
708.154,-21.553646,
707.189,-19.847656,
706.225,-19.810417,
705.261,-18.748438,
704.297,-14.971094,
703.333,-9.0960941,
702.368,-4.3270831,
701.404,0.37369791,
700.440,5.9494791,
699.476,10.668229,
698.511,13.565625,
697.547,15.004427,
696.583,16.765104,
695.619,16.811197,
694.654,15.211458,
693.690,13.26875,
692.726,9.1481771,
691.762,1.290625,
690.798,-8.4851561,
689.833,-8.9171877,
688.869,-5.169271,
687.905,-4.3148437,
686.941,-7.9111981,
685.976,-13.500521,
685.012,-16.366926,
684.048,-14.678386,
683.084,-15.045834,
682.119,-18.812761,
681.155,-22.955729,
680.191,-24.300261,
679.227,-21.036459,
678.262,-13.919791,
677.298,-8.6999998,
676.334,-6.6481771,
675.370,-4.1200519,
674.406,0.047135416,
673.441,4.0664063,
672.477,3.4463542,
671.513,3.2776041,
670.549,4.3502603,
669.584,4.1614585,
668.620,2.1229167,
667.656,-1.0708333,
666.692,-4.1960936,
665.727,-5.5229168,
664.763,-4.5270834,
663.799,-2.6666667,
662.835,-0.39166668,
661.871,2.7526042,
660.906,7.9481769,
659.942,15.964844,
658.978,23.672396,
658.014,22.159636,
657.049,13.108334,
656.085,4.5195313,
655.121,6.1854167,
654.157,16.062239,
653.192,21.595053,
652.228,20.897135,
651.264,16.977865,
650.300,12.898958,
649.335,10.3125,
648.371,8.8710938,
647.407,8.7666664,
646.443,10.292708,
645.479,16.146614,
644.514,27.233334,
643.550,40.235157,
642.586,42.372135,
641.622,34.595573,
640.657,28.417187,
639.693,21.573437,
638.729,17.398699,
637.765,21.453646,
636.800,34.392189,
635.836,38.160416,
634.872,32.627342,
633.908,24.666927,
632.944,18.79401,
631.979,17.16328,
631.015,20.335676,
630.051,29.765364,
629.087,35.412239,
628.122,32.303646,
627.158,23.327084,
626.194,14.648958,
625.230,10.928386,
624.265,12.111459,
623.301,16.361979,
622.337,18.361719,
621.373,17.76849,
620.408,17.489843,
619.444,21.874218,
618.480,24.909895,
617.516,24.937239,
616.552,26.92552,
615.587,32.962761,
614.623,41.371876,
613.659,46.191666,
612.695,42.686459,
611.730,38.622135,
610.766,35.879429,
609.802,34.584373,
608.838,35.780991,
607.873,43.23177,
606.909,52.883335,
605.945,48.860157,
604.981,36.317188,
604.017,25.295313,
603.052,24.021093,
602.088,32.978386,
601.124,42.400002,
600.160,46.274738,
599.195,45.440624,
598.231,40.999477,
597.267,34.005989,
596.303,25.289583,
595.338,18.478907,
594.374,16.125,
593.410,20.280989,
592.446,29.196354,
591.481,38.526821,
590.517,42.512241,
589.553,47.077602,
588.589,53.465103,
587.625,57.478127,
586.660,58.715626,
585.696,58.610939,
584.732,58.034897,
583.768,58.232033,
582.803,62.857811,
581.839,69.270836,
580.875,72.902344,
579.911,70.577347,
578.946,65.402863,
577.982,65.904945,
577.018,65.978645,
576.054,63.347656,
575.089,59.598179,
574.125,58.767967,
573.161,65.321617,
572.197,76.898438,
571.233,80.703903,
570.268,77.199997,
569.304,72.32708,
568.340,73.64505,
567.376,82.066406,
566.411,91.293228,
565.447,99.559639,
564.483,105.06718,
563.519,106.2039,
562.554,102.33437,
561.590,97.635414,
560.626,97.159378,
559.662,97.640884,
558.698,97.427864,
557.733,96.510155,
556.769,96.602608,
555.805,99.469269,
554.841,103.16068,
553.876,107.67995,
552.912,112.47057,
551.948,116.25078,
550.984,117.0164,
550.019,116.5138,
549.055,117.18307,
548.091,119.04739,
547.127,122.73698,
546.162,128.84427,
545.198,137.32109,
544.234,142.55365,
543.270,143.24348,
542.306,142.20522,
541.341,141.4474,
540.377,142.46198,
539.413,147.84036,
538.449,164.52605,
537.484,185.17448,
536.520,203.89063,
535.556,218.4711,
534.592,230.06328,
533.627,240.16432,
532.663,251.58749,
531.699,267.98907,
530.735,290.04376,
529.771,315.97186,
528.806,341.85599,
527.842,365.76407,
526.878,390.50104,
525.914,413.41824,
524.949,432.5289,
523.985,445.00861,
523.021,445.11093,
522.057,434.58463,
521.092,428.87656,
520.128,426.54895,
519.164,420.0224,
518.200,400.74139,
517.235,369.00235,
516.271,342.13022,
515.307,320.14661,
514.343,299.6026,
513.379,278.41327,
512.414,256.50574,
511.450,234,
510.486,208.85912,
509.522,188.86745,
508.557,182.42317,
507.593,190.18594,
506.629,199.13594,
505.665,186.25417,
504.700,170.36954,
503.736,157.96172,
502.772,150.21849,
501.808,145.83698,
500.844,144.48619,
499.879,144.45364,
498.915,147.38907,
497.951,153.11041,
496.987,158.94792,
496.022,160.48958,
495.058,154.30182,
494.094,143.99141,
493.130,133.14766,
492.165,126.5125,
491.201,129.26172,
490.237,146.57422,
489.273,168.3737,
488.308,177.25417,
487.344,175.89999,
486.380,168.38907,
485.416,159.18594,
484.452,151.36354,
483.487,148.90547,
482.523,150.18098,
481.559,154.1125,
480.595,158.89375,
479.630,162.21849,
478.666,164.41328,
477.702,168.18515,
476.738,172.03725,
475.773,174.29765,
474.809,174.61406,
473.845,175.96172,
472.881,183.50261,
471.917,191.89427,
470.952,197.03725,
469.988,197.58855,
469.024,194.59375,
468.060,189.40105,
467.095,186.28619,
466.131,193.86093,
465.167,210.39688,
464.203,231.04036,
463.238,250.30911,
462.274,266.56613,
461.310,283.17084,
460.346,303.84192,
459.381,331.40494,
458.417,367.36771,
457.453,410.02292,
456.489,449.46902,
455.525,477.03906,
454.560,494.74271,
453.596,506.47916,
452.632,515.86591,
451.668,523.42188,
450.703,536.33514,
449.739,550.35236,
448.775,554.42657,
447.811,538.03827,
446.846,505.29349,
445.882,468.2453,
444.918,429.51016,
443.954,391.89609,
442.990,357.2323,
442.025,325.78827,
441.061,301.47449,
440.097,287.19479,
439.133,275.79324,
438.168,261.47708,
437.204,241.41745,
436.240,222.70807,
435.276,217.77266,
434.311,221.32735,
433.347,225.11406,
432.383,224.66719,
431.419,222.24844,
430.454,220.99506,
429.490,221.15964,
428.526,223.84036,
427.562,229.06902,
426.598,235.69557,
425.633,239.46249,
424.669,237.60338,
423.705,233.69713,
422.741,230.48828,
421.776,229.64297,
420.812,231.0013,
419.848,235.67006,
418.884,242.12917,
417.919,246.36954,
416.955,247.65182,
415.991,248.69583,
415.027,261.20963,
414.063,279.52213,
413.098,292.47006,
412.134,298.73801,
411.170,301.19348,
410.206,306.35287,
409.241,316.91641,
408.277,329.23984,
407.313,342.40808,
406.349,357.65912,
405.384,378.38202,
404.420,411.91434,
403.456,452.69296,
402.492,496.72684,
401.527,546.10052,
400.563,608.21875,
399.599,703.58826,
398.635,824.5224,
397.671,984.22864,
396.706,1180.2277,
395.742,1390.7502,
394.778,1571.6438,
393.814,1730.6726,
392.849,1774.0278,
391.885,1697.8739,
390.921,1534.929,
389.957,1339.8125,
388.992,1140.7797,
388.028,945.27319,
387.064,784.74426,
386.100,655.1745,
385.136,548.20184,
384.171,464.27371,
383.207,402.25079,
382.243,354.58749,
381.279,322.04401,
380.314,301.29297,
379.350,283.06198,
378.386,276.22238,
377.422,260.48047,
376.457,239.55704,
375.493,220.01537,
374.529,208.57683,
373.565,204.24557,
372.600,199.59869,
371.636,194.32864,
370.672,187.45677,
369.708,177.95338,
368.744,164.88698,
367.779,158.02109,
366.815,156.79478,
365.851,156.26563,
364.887,154.18698,
363.922,152.65234,
362.958,152.26744,
361.994,142.56406,
361.030,130.04506,
360.065,122.10234,
359.101,124.96693,
358.137,131.63853,
357.173,133.48567,
356.209,132.20755,
355.244,129.95677,
354.280,128.87787,
353.316,130.27162,
352.352,133.63203,
351.387,136.95833,
350.423,139.75729,
349.459,143.17422,
348.495,151.1487,
347.530,161.27135,
346.566,159.64011,
345.602,149.86615,
344.638,139.48047,
343.673,138.31172,
342.709,140.85703,
341.745,138.4263,
340.781,133.26875,
339.817,130.02396,
338.852,134.07683,
337.888,147.119,
336.924,157.84792,
335.960,162.32292,
334.995,162.25963,
334.031,161.63229,
333.067,165.99896,
332.103,170.79791,
331.138,170.12839,
330.174,166.84869,
329.210,166.21223,
328.246,175.67474,
327.282,188.15938,
326.317,196.97343,
325.353,203.37057,
324.389,210.08516,
323.425,220.73724,
322.460,235.92474,
321.496,254.08203,
320.532,274.94949,
319.568,296.10077,
318.603,313.49921,
317.639,323.04767,
316.675,329.30807,
315.711,332.17267,
314.746,331.4198,
313.782,327.26041,
312.818,322.03647,
311.854,317.4888,
310.890,310.55807,
309.925,298.5578,
308.961,279.79608,
307.997,255.41797,
307.033,225.81902,
306.068,200.05156,
305.104,180.66978,
304.140,167.74765,
303.176,158.98386,
302.211,153.24089,
301.247,151.77708,
300.283,153.68178,
299.319,157.12265,
298.355,159.13542,
297.390,158.04245,
296.426,153.61302,
295.462,143.88881,
294.498,130.38177,
293.533,118.63698,
292.569,120.44036,
291.605,122.08984,
290.641,119.25547,
289.676,112.44896,
288.712,106.32448,
287.748,100.98281,
286.784,96.409637,
285.819,94.564323,
284.855,94.770576,
283.891,94.447655,
282.927,88.642448,
281.963,82.278648,
280.998,80.387497,
280.034,83.824478,
279.070,90.790627,
278.106,95.599998,
277.141,99.405472,
276.177,101.67057,
275.213,101.61015,
274.249,99.38958,
273.284,101.56641,
272.320,107.74635,
271.356,113.88541,
270.392,116.2125,
269.428,112.00286,
268.463,101.9375,
267.499,102.50052,
266.535,113.82864,
265.571,130.16197,
264.606,144.2724,
263.642,149.48854,
262.678,148.64662,
261.714,145.02499,
260.749,140.58775,
259.785,137.8474,
258.821,142.00391,
257.857,153.55937,
256.892,168.98619,
255.928,185.93959,
254.964,200.78671,
254.000,205.89479,
253.036,207.02031,
252.071,214.56953,
251.107,227.53984,
250.143,241.75626,
249.179,248.71458,
248.214,246.44244,
247.250,243.20287,
246.286,242.54662,
245.322,245.87994,
244.357,251.30833,
243.393,252.9763,
242.429,250.58542,
241.465,242.77916,
240.500,228.9901,
239.536,209.89037,
238.572,193.18724,
237.608,177.62891,
236.644,164.20729,
235.679,153.35156,
234.715,144.22369,
233.751,134.33698,
232.787,124.55495,
231.822,116.17683,
230.858,110.25052,
229.894,107.75468,
228.930,107.06406,
227.965,104.98646,
227.001,100.40651,
226.037,93.17292,
225.073,84.491142,
224.109,76.698959,
223.144,70.471611,
222.180,66.451042,
221.216,64.774483,
220.252,64.645576,
219.287,63.814583,
218.323,62.142708,
217.359,59.855991,
216.395,58.701824,
215.430,64.594269,
214.466,75.131248,
213.502,77.621353,
212.538,71.287758,
211.573,59.417187,
210.609,52.822918,
209.645,56.795834,
208.681,61.409897,
207.717,61.828125,
206.752,55.957291,
205.788,48.011459,
204.824,46.043228,
203.860,47.408855,
202.895,50.610676,
201.931,54.363281,
200.967,58.153126,
200.003,58.081772,
199.038,53.105209,
198.074,46.165627,
197.110,41.397137,
196.146,44.420834,
195.182,48.351822,
194.217,51.357552,
193.253,55.458073,
192.289,63.255207,
191.325,73.377342,
190.360,77.366142,
189.396,76.719269,
188.432,74.659111,
187.468,75.289841,
186.503,81.306511,
185.539,91.652084,
184.575,106.08073,
183.611,123.09974,
182.646,140.42397,
181.682,161.40157,
180.718,185.91953,
179.754,210.59766,
178.790,235.08932,
177.825,261.51642,
176.861,294.49426,
175.897,329.52344,
174.933,367.15494,
173.968,408.36407,
173.004,455.64453,
172.040,493.79999,
171.076,512.13696,
170.111,518.5271,
169.147,521.60547,
168.183,531.51642,
167.219,537.45441,
166.255,530.94659,
165.290,513.60571,
164.326,489.14297,
163.362,463.48541,
162.398,432.24582,
161.433,388.90366,
160.469,335.47787,
159.505,278.2659,
158.541,236.91251,
157.576,208.46146,
156.612,183.54478,
155.648,158.68073,
154.684,132.01381,
153.719,105.8539,
152.755,82.905472,
151.791,62.733852,
150.827,45.628647,
149.863,32.396355,
148.898,26.096615,
147.934,21.592709,
146.970,17.420052,
146.006,12.41224,
145.041,5.5028644,
144.077,-3.1205728,
143.113,-10.438021,
142.149,-16.285938,
141.184,-20.489323,
140.220,-22.66901,
139.256,-21.029688,
138.292,-18.510416,
137.328,-16.487499,
136.363,-15.050521,
135.399,-10.126562,
134.435,1.7416667,
133.471,12.328125,
132.506,17.356771,
131.542,14.629948,
130.578,10.947917,
129.614,8.3502607,
128.649,4.6197915,
127.685,3.3690104,
126.721,10.654688,
125.757,25.531511,
124.792,39.580467,
123.828,54.191147,
122.864,69.755211,
121.900,86.006248,
120.936,103.46641,
119.971,121.12005,
119.007,138.92578,
118.043,157.6763,
117.079,180.17369,
116.114,208.28281,
115.150,239.73958,
114.186,276.02707,
113.222,318.9487,
112.257,372.36328,
111.293,436.47369,
110.329,506.29636,
109.365,581.88226,
108.401,663.51874,
107.436,753.66431,
106.472,845.63617,
105.508,944.03723,
104.544,1044.9263,
103.579,1136.3224,
102.615,1212.5802,
101.651,1261.1721,
100.687,1280.0984,
99.722,1272.8307,
98.758,1251.6708,
97.794,1225.5542,
96.830,1192.2732,
95.865,1152.4401,
94.901,1106.5662,
93.937,1049.3394,
92.973,985.39532,
92.009,920.13568,
91.044,859.09143,
90.080,809.11353,
89.116,764.77319,
88.152,726.37396,
87.187,691.50391,
86.223,657.04791,
85.259,617.24036,
84.295,577.15259,
83.330,540.74689,
82.366,509.58231,
81.402,483.98386,
80.438,463.04062,
79.474,441.90964,
78.509,422.1586,
77.545,406.73984,
76.581,398.79739,
75.617,398.23932,
74.652,397.74167,
73.688,398.47736,
72.724,400.33176,
71.760,401.88568,
70.795,394.36823,
69.831,383.96249,
68.867,375.54428,
67.903,373.90964,
66.938,386.29269,
65.974,409.82785,
65.010,440.43671,
64.046,476.79739,
63.082,517.58331,
62.117,562.87476,
61.153,610.80939,
60.189,658.94061,
59.225,704.60938,
58.260,744.24841,
57.296,780.25757,
56.332,820.47919,
55.368,863.36536,
54.403,904.23724,
53.439,926.76355,
52.475,939.41461,
51.511,959.0672,
50.547,988.14374,
