,PVC Spectrum,
Raman shift [1/cm],Counts/sec,
3408.971,4.2396483,
3408.007,4.9023438,
3407.043,5.4297851,
3406.079,5.2672364,
3405.115,3.936377,
3404.150,1.4139161,
3403.186,0.16440439,
3402.222,0,
3401.258,1.8097468,
3400.293,4.0430772,
3399.329,4.8374919,
3398.365,4.6525608,
3397.401,3.7638211,
3396.436,3.744051,
3395.472,5.6728407,
3394.508,5.6429633,
3393.544,2.3515871,
3392.579,3.1291314,
3391.615,8.0846055,
3390.651,6.7115153,
3389.687,2.5686742,
3388.723,0.9136989,
3387.758,1.2356036,
3386.794,1.8630261,
3385.830,2.7260199,
3384.866,3.8585449,
3383.901,4.2987847,
3382.937,2.7440539,
3381.973,2.0963543,
3381.009,3.6461887,
3380.044,4.0359891,
3379.080,2.7522541,
3378.116,2.7185437,
3377.152,4.1547797,
3376.188,5.5375,
3375.223,6.3951714,
3374.259,6.1395616,
3373.295,4.5419108,
3372.331,2.0483372,
3371.366,0.3397978,
3370.402,2.6828623,
3369.438,4.6462882,
3368.474,3.2016331,
3367.509,1.6909867,
3366.545,2.4982059,
3365.581,3.821011,
3364.617,5.1651543,
3363.652,5.5826617,
3362.688,4.7224592,
3361.724,5.03003,
3360.760,6.0732943,
3359.796,7.2222958,
3358.831,8.2404624,
3357.867,7.5833848,
3356.903,6.1908825,
3355.939,5.3795568,
3354.974,4.6963807,
3354.010,4.0266079,
3353.046,3.670336,
3352.082,3.6409928,
3351.117,3.6913859,
3350.153,3.6581854,
3349.189,3.6728608,
3348.225,4.0035517,
3347.260,5.1994283,
3346.296,6.6629318,
3345.332,6.3387644,
3344.368,4.6426243,
3343.404,4.3481688,
3342.439,4.966189,
3341.475,5.0487599,
3340.511,5.1292311,
3339.547,5.5296731,
3338.582,5.6028934,
3337.618,4.9127103,
3336.654,4.2068535,
3335.690,4.0038776,
3334.725,4.1762432,
3333.761,4.7370857,
3332.797,6.0380404,
3331.833,8.1364804,
3330.869,7.8122641,
3329.904,5.5891466,
3328.940,7.3181774,
3327.976,9.172599,
3327.012,6.2513368,
3326.047,2.4493374,
3325.083,3.6809773,
3324.119,6.9777784,
3323.155,6.9372016,
3322.190,6.1166443,
3321.226,5.5425714,
3320.262,6.721892,
3319.298,11.103751,
3318.333,11.103165,
3317.369,5.494473,
3316.405,3.1288231,
3315.441,4.106459,
3314.477,4.5275277,
3313.512,4.2411745,
3312.548,4.6335566,
3311.584,5.6361195,
3310.620,7.9058942,
3309.655,10.369517,
3308.691,9.5343108,
3307.727,8.0882653,
3306.763,7.5091875,
3305.798,7.3186595,
3304.834,7.3959294,
3303.870,7.5068174,
3302.906,7.249761,
3301.942,5.8567917,
3300.977,3.2704141,
3300.013,2.6531282,
3299.049,4.68511,
3298.085,5.5520039,
3297.120,5.5613294,
3296.156,6.3040533,
3295.192,7.1608154,
3294.228,6.2852044,
3293.263,5.0274645,
3292.299,6.9019755,
3291.335,10.136643,
3290.371,9.7172086,
3289.406,8.2067588,
3288.442,7.3131057,
3287.478,6.6712106,
3286.514,6.3598817,
3285.550,7.2059749,
3284.585,9.5347096,
3283.621,10.108195,
3282.657,7.8936682,
3281.693,5.3699371,
3280.728,3.6324608,
3279.764,3.3032853,
3278.800,4.3893443,
3277.836,4.721326,
3276.871,4.4341184,
3275.907,3.601525,
3274.943,3.4873397,
3273.979,5.7721779,
3273.015,8.234311,
3272.050,7.5920741,
3271.086,5.7404865,
3270.122,5.7127271,
3269.158,6.6520086,
3268.193,8.524054,
3267.229,8.3067682,
3266.265,4.5500047,
3265.301,3.8986125,
3264.336,7.4773471,
3263.372,7.9781277,
3262.408,5.4855978,
3261.444,6.3386245,
3260.479,10.282862,
3259.515,10.056006,
3258.551,6.0693598,
3257.587,3.405077,
3256.623,1.7368879,
3255.658,3.5634272,
3254.694,5.4066902,
3253.730,3.9533957,
3252.766,2.6009067,
3251.801,4.6873094,
3250.837,7.2864806,
3249.873,7.0822095,
3248.909,6.6581386,
3247.944,7.3686135,
3246.980,7.4560172,
3246.016,6.3504276,
3245.052,5.427553,
3244.088,4.6048492,
3243.123,3.9293134,
3242.159,3.7207942,
3241.195,4.6982613,
3240.231,6.3856894,
3239.266,6.9319554,
3238.302,6.2514146,
3237.338,4.9057373,
3236.374,3.5528088,
3235.409,5.4294215,
3234.445,7.6990029,
3233.481,7.1633352,
3232.517,5.8227604,
3231.552,5.218416,
3230.588,4.9194183,
3229.624,4.5819929,
3228.660,5.0512813,
3227.696,6.6729623,
3226.731,7.5943504,
3225.767,7.2858312,
3224.803,7.554851,
3223.839,8.4850524,
3222.874,7.2361281,
3221.910,4.4381069,
3220.946,4.2825418,
3219.982,6.1766837,
3219.017,6.410645,
3218.053,5.0588396,
3217.089,4.3698273,
3216.125,4.3733198,
3215.161,6.5657526,
3214.196,8.6668771,
3213.232,6.3479819,
3212.268,4.062827,
3211.304,4.7240344,
3210.339,6.6396117,
3209.375,8.8589246,
3208.411,9.3834375,
3207.447,6.2627603,
3206.482,4.5538505,
3205.518,7.276215,
3204.554,8.3813189,
3203.590,6.24133,
3202.625,5.799925,
3201.661,6.7182856,
3200.697,6.6952403,
3199.733,6.078469,
3198.769,5.2138951,
3197.804,4.3284228,
3196.840,4.3502747,
3195.876,4.6890944,
3194.912,3.1423916,
3193.947,1.5267923,
3192.983,4.925654,
3192.019,8.803373,
3191.055,8.3530648,
3190.090,6.5658425,
3189.126,5.4602854,
3188.162,4.8453776,
3187.198,4.6361094,
3186.234,4.9849711,
3185.269,5.8678416,
3184.305,5.7402628,
3183.341,3.4627085,
3182.377,2.5663554,
3181.412,4.1398021,
3180.448,4.8154949,
3179.484,4.1765148,
3178.520,4.1336528,
3177.555,4.9619335,
3176.591,5.7680461,
3175.627,6.2421764,
3174.663,6.1347882,
3173.698,5.1725659,
3172.734,4.5451336,
3171.770,4.3704846,
3170.806,3.6083844,
3169.842,3.4313184,
3168.877,5.5177289,
3167.913,7.3386609,
3166.949,6.2755598,
3165.985,4.2603589,
3165.020,3.5505292,
3164.056,2.9067395,
3163.092,1.4353865,
3162.128,1.2632765,
3161.163,4.9465199,
3160.199,6.7803737,
3159.235,4.6356874,
3158.271,3.3099953,
3157.307,4.093727,
3156.342,5.3672781,
3155.378,6.2416349,
3154.414,6.6186039,
3153.450,6.4455729,
3152.485,5.7409746,
3151.521,4.8054436,
3150.557,5.3311186,
3149.593,6.8616466,
3148.628,5.2649774,
3147.664,2.7109352,
3146.700,2.8361166,
3145.736,4.4153751,
3144.771,4.9253465,
3143.807,4.8345611,
3142.843,5.2738294,
3141.879,5.3430781,
3140.915,3.8013894,
3139.950,2.7623862,
3138.986,5.1816594,
3138.022,6.8781542,
3137.058,4.6516511,
3136.093,2.2163588,
3135.129,2.0537472,
3134.165,2.292454,
3133.201,1.5235191,
3132.236,1.9442062,
3131.272,4.3973132,
3130.308,5.767388,
3129.344,5.2786251,
3128.380,5.4730162,
3127.415,6.3467043,
3126.451,6.8033759,
3125.487,6.2869759,
3124.523,4.6763867,
3123.558,3.1099625,
3122.594,3.6325946,
3121.630,5.7996085,
3120.666,6.8560753,
3119.701,6.5481135,
3118.737,5.2089091,
3117.773,3.6403098,
3116.809,4.4387934,
3115.844,5.7524599,
3114.880,6.2233339,
3113.916,5.9799893,
3112.952,5.2073964,
3111.988,4.7739638,
3111.023,5.6744424,
3110.059,6.8044623,
3109.095,6.581772,
3108.131,6.1964354,
3107.166,6.6063869,
3106.202,6.7541066,
3105.238,6.1588334,
3104.274,6.9153182,
3103.309,9.8684826,
3102.345,11.019034,
3101.381,8.385016,
3100.417,6.6490935,
3099.453,7.6650263,
3098.488,7.7250752,
3097.524,5.8219407,
3096.560,5.8746167,
3095.596,8.1252664,
3094.631,8.2577521,
3093.667,6.895389,
3092.703,7.2293637,
3091.739,8.4607997,
3090.774,7.2801016,
3089.810,4.5747696,
3088.846,5.2583768,
3087.882,8.4847086,
3086.917,8.2330371,
3085.953,5.9004821,
3084.989,5.6544016,
3084.025,5.6940633,
3083.061,4.9407562,
3082.096,4.7135966,
3081.132,6.416802,
3080.168,8.3286094,
3079.204,8.0006215,
3078.239,6.9373798,
3077.275,8.0818359,
3076.311,9.3733132,
3075.347,8.7187943,
3074.382,7.6521907,
3073.418,7.0852238,
3072.454,8.0952125,
3071.490,11.617506,
3070.526,13.946953,
3069.561,12.955819,
3068.597,11.207384,
3067.633,10.086245,
3066.669,8.810712,
3065.704,7.6544653,
3064.740,8.0128568,
3063.776,10.300526,
3062.812,12.99044,
3061.847,15.859482,
3060.883,14.990973,
3059.919,11.220683,
3058.955,10.700832,
3057.990,12.968263,
3057.026,12.765917,
3056.062,10.291183,
3055.098,11.015278,
3054.134,14.929509,
3053.169,17.830361,
3052.205,19.679651,
3051.241,18.876818,
3050.277,16.49205,
3049.312,12.386701,
3048.348,8.8249555,
3047.384,10.311614,
3046.420,15.077873,
3045.455,18.790871,
3044.491,21.27115,
3043.527,21.191762,
3042.563,19.4863,
3041.599,17.95171,
3040.634,16.576555,
3039.670,15.961848,
3038.706,16.248566,
3037.742,17.998443,
3036.777,19.685015,
3035.813,19.973125,
3034.849,20.412456,
3033.885,22.373394,
3032.920,24.136064,
3031.956,24.60662,
3030.992,24.866287,
3030.028,25.084062,
3029.063,25.269852,
3028.099,25.509231,
3027.135,26.425954,
3026.171,28.509329,
3025.207,30.06067,
3024.242,30.521828,
3023.278,31.796411,
3022.314,34.101222,
3021.350,34.432106,
3020.385,32.194826,
3019.421,31.508715,
3018.457,32.792137,
3017.493,34.693334,
3016.528,36.809569,
3015.564,37.683227,
3014.600,38.070897,
3013.636,40.32678,
3012.672,44.220359,
3011.707,46.985127,
3010.743,48.436765,
3009.779,50.164229,
3008.815,52.046722,
3007.850,54.463983,
3006.886,57.33222,
3005.922,59.368816,
3004.958,61.330952,
3003.993,64.856605,
3003.029,69.494668,
3002.065,74.091366,
3001.101,78.224302,
3000.136,81.200592,
2999.172,84.055354,
2998.208,90.963285,
2997.244,99.347976,
2996.280,105.41006,
2995.315,111.13108,
2994.351,117.81254,
2993.387,125.22023,
2992.423,133.00638,
2991.458,141.91501,
2990.494,153.46287,
2989.530,167.29097,
2988.566,182.25613,
2987.601,197.83037,
2986.637,213.14601,
2985.673,227.98852,
2984.709,241.74084,
2983.745,259.03505,
2982.780,282.15533,
2981.816,305.00867,
2980.852,324.05925,
2979.888,342.95324,
2978.923,363.81363,
2977.959,385.64046,
2976.995,408.59512,
2976.031,431.12375,
2975.066,451.80015,
2974.102,473.10055,
2973.138,494.98471,
2972.174,511.64711,
2971.209,522.33907,
2970.245,528.43845,
2969.281,530.53013,
2968.317,530.26848,
2967.353,528.87616,
2966.388,526.03706,
2965.424,522.03096,
2964.460,516.12967,
2963.496,508.04933,
2962.531,504.47307,
2961.567,505.56982,
2960.603,506.62733,
2959.639,507.68541,
2958.674,513.35129,
2957.710,524.24363,
2956.746,537.59209,
2955.782,552.86615,
2954.818,572.64081,
2953.853,597.91976,
2952.889,625.6376,
2951.925,656.19388,
2950.961,684.47533,
2949.996,710.93194,
2949.032,741.73011,
2948.068,775.45723,
2947.104,804.75967,
2946.139,831.2565,
2945.175,863.78532,
2944.211,900.36456,
2943.247,928.67139,
2942.282,950.21382,
2941.318,978.19113,
2940.354,1009.3948,
2939.390,1038.4433,
2938.426,1063.3568,
2937.461,1077.0025,
2936.497,1079.7308,
2935.533,1072.1152,
2934.569,1059.528,
2933.604,1054.4019,
2932.640,1052.6149,
2931.676,1042.2655,
2930.712,1027.7065,
2929.747,1016.538,
2928.783,1007.6131,
2927.819,1005.7894,
2926.855,1008.6504,
2925.891,1013.71,
2924.926,1022.6304,
2923.962,1038.4159,
2922.998,1062.3693,
2922.034,1096.873,
2921.069,1139.2573,
2920.105,1180.0757,
2919.141,1222.9778,
2918.177,1268.1316,
2917.212,1316.865,
2916.248,1372.5225,
2915.284,1427.8779,
2914.320,1474.6389,
2913.355,1510.3295,
2912.391,1530.1576,
2911.427,1532.5653,
2910.463,1513.0387,
2909.499,1474.1167,
2908.534,1417.0728,
2907.570,1348.8809,
2906.606,1281.2955,
2905.642,1208.0887,
2904.677,1127.8595,
2903.713,1042.609,
2902.749,954.26163,
2901.785,867.66576,
2900.820,788.54115,
2899.856,710.81222,
2898.892,628.12206,
2897.928,547.96119,
2896.964,476.07064,
2895.999,411.15849,
2895.035,355.5727,
2894.071,309.07928,
2893.107,272.08506,
2892.142,240.35082,
2891.178,209.98293,
2890.214,183.01704,
2889.250,162.22562,
2888.285,145.80632,
2887.321,131.477,
2886.357,120.83578,
2885.393,114.53654,
2884.428,109.336,
2883.464,102.99038,
2882.500,97.269325,
2881.536,92.487281,
2880.572,87.855263,
2879.607,82.807056,
2878.643,77.862754,
2877.679,73.647112,
2876.715,70.142415,
2875.750,67.669548,
2874.786,66.121875,
2873.822,65.202727,
2872.858,64.962572,
2871.893,65.228917,
2870.929,65.912308,
2869.965,67.23259,
2869.001,67.932709,
2868.036,67.222962,
2867.072,67.246323,
2866.108,69.317681,
2865.144,70.867392,
2864.180,70.339738,
2863.215,70.451481,
2862.251,72.662893,
2861.287,75.420731,
2860.323,78.406406,
2859.358,81.074505,
2858.394,83.189373,
2857.430,83.656842,
2856.466,81.57148,
2855.501,81.099979,
2854.537,85.708022,
2853.573,90.215045,
2852.609,90.686858,
2851.645,91.672045,
2850.680,95.691076,
2849.716,97.34443,
2848.752,94.56004,
2847.788,94.369011,
2846.823,99.431383,
2845.859,103.27329,
2844.895,101.90284,
2843.931,100.40559,
2842.966,101.87318,
2842.002,101.67495,
2841.038,95.954602,
2840.074,90.013218,
2839.109,87.630627,
2838.145,85.108089,
2837.181,81.359407,
2836.217,75.683822,
2835.253,67.530012,
2834.288,59.857112,
2833.324,54.621515,
2832.360,51.38919,
2831.396,50.692058,
2830.431,50.847076,
2829.467,49.82285,
2828.503,47.880744,
2827.539,43.965303,
2826.574,40.988429,
2825.610,41.043071,
2824.646,41.619978,
2823.682,41.554591,
2822.718,42.44521,
2821.753,45.463026,
2820.789,49.278129,
2819.825,52.114328,
2818.861,53.412342,
2817.896,51.774955,
2816.932,49.897288,
2815.968,50.512388,
2815.004,51.388871,
2814.039,51.679119,
2813.075,51.461224,
2812.111,50.317619,
2811.147,47.962194,
2810.182,44.016632,
2809.218,38.617705,
2808.254,32.881471,
2807.290,28.157199,
2806.326,25.818766,
2805.361,23.808362,
2804.397,20.693954,
2803.433,17.670122,
2802.469,15.689796,
2801.504,14.556443,
2800.540,13.73515,
2799.576,12.936122,
2798.612,12.382849,
2797.647,12.063704,
2796.683,11.049832,
2795.719,9.6615765,
2794.755,8.6583206,
2793.791,8.0562019,
2792.826,8.7653159,
2791.862,9.7192553,
2790.898,9.6756837,
2789.934,8.2820641,
2788.969,5.0703203,
2788.005,3.2004469,
2787.041,6.4370585,
2786.077,11.117956,
2785.112,10.434744,
2784.148,7.1746269,
2783.184,7.0248125,
2782.220,7.5831032,
2781.255,7.0569222,
2780.291,6.5606722,
2779.327,6.5822931,
2778.363,6.7774494,
2777.399,6.9490213,
2776.434,7.5840218,
2775.470,9.7908482,
2774.506,12.686737,
2773.542,13.440487,
2772.577,12.793406,
2771.613,13.818982,
2770.649,15.423416,
2769.685,15.04987,
2768.720,14.105035,
2767.756,13.948969,
2766.792,14.332844,
2765.828,15.150901,
2764.864,16.006554,
2763.899,15.980517,
2762.935,15.257018,
2761.971,15.53235,
2761.007,17.213978,
2760.042,19.873832,
2759.078,23.190031,
2758.114,26.047198,
2757.150,28.425605,
2756.185,28.920124,
2755.221,28.597994,
2754.257,29.053061,
2753.293,30.083372,
2752.328,30.862316,
2751.364,31.414943,
2750.400,32.224645,
2749.436,33.200222,
2748.472,34.204116,
2747.507,35.377836,
2746.543,38.238907,
2745.579,42.951983,
2744.615,44.368184,
2743.650,42.59288,
2742.686,41.957957,
2741.722,42.853307,
2740.758,43.817112,
2739.793,44.326525,
2738.829,44.112256,
2737.865,43.376403,
2736.901,43.462576,
2735.937,44.757729,
2734.972,47.26934,
2734.008,50.84643,
2733.044,51.568341,
2732.080,49.02507,
2731.115,46.388582,
2730.151,44.692525,
2729.187,44.311607,
2728.223,45.500463,
2727.258,45.441369,
2726.294,42.113429,
2725.330,40.202478,
2724.366,43.227566,
2723.401,44.700797,
2722.437,40.689554,
2721.473,37.051457,
2720.509,36.428645,
2719.545,36.757001,
2718.580,36.750691,
2717.616,36.758738,
2716.652,37.237241,
2715.688,37.851685,
2714.723,37.629454,
2713.759,36.863721,
2712.795,35.265419,
2711.831,33.708281,
2710.866,34.692838,
2709.902,35.999515,
2708.938,35.289839,
2707.974,33.864827,
2707.010,33.033127,
2706.045,32.387412,
2705.081,30.997264,
2704.117,29.502769,
2703.153,29.371949,
2702.188,29.636342,
2701.224,30.413284,
2700.260,32.352139,
2699.296,32.173222,
2698.331,31.400213,
2697.367,31.604351,
2696.403,31.709126,
2695.439,31.363265,
2694.474,30.88884,
2693.510,29.866904,
2692.546,28.143895,
2691.582,26.696276,
2690.618,25.674439,
2689.653,24.312318,
2688.689,22.842386,
2687.725,23.258877,
2686.761,24.872392,
2685.796,23.833124,
2684.832,21.01524,
2683.868,22.81684,
2682.904,28.990072,
2681.939,30.747288,
2680.975,25.065587,
2680.011,19.893993,
2679.047,19.020008,
2678.083,19.824,
2677.118,22.24767,
2676.154,24.005667,
2675.190,23.687834,
2674.226,22.961309,
2673.261,22.33996,
2672.297,22.434773,
2671.333,23.857514,
2670.369,24.579183,
2669.404,22.205979,
2668.440,19.671594,
2667.476,20.493896,
2666.512,21.701599,
2665.547,20.624587,
2664.583,19.337759,
2663.619,18.845121,
2662.655,18.743352,
2661.691,19.367022,
2660.726,20.496161,
2659.762,22.086434,
2658.798,23.695113,
2657.834,24.350229,
2656.869,23.260813,
2655.905,19.208409,
2654.941,14.263721,
2653.977,16.008681,
2653.012,21.718631,
2652.048,22.185903,
2651.084,20.36143,
2650.120,16.963177,
2649.156,13.325909,
2648.191,13.55456,
2647.227,16.593758,
2646.263,17.370651,
2645.299,15.462974,
2644.334,15.145824,
2643.370,17.101623,
2642.406,17.911622,
2641.442,17.15746,
2640.477,17.068923,
2639.513,17.433756,
2638.549,15.898784,
2637.585,12.316742,
2636.620,9.8929508,
2635.656,9.9245367,
2634.692,11.361239,
2633.728,13.94594,
2632.764,15.98611,
2631.799,15.194247,
2630.835,13.2539,
2629.871,10.838014,
2628.907,9.228135,
2627.942,10.983422,
2626.978,13.546962,
2626.014,15.113822,
2625.050,15.48283,
2624.085,14.249787,
2623.121,12.665963,
2622.157,12.356602,
2621.193,12.732056,
2620.229,12.962783,
2619.264,13.476322,
2618.300,14.681268,
2617.336,15.928401,
2616.372,14.481052,
2615.407,11.863292,
2614.443,12.113892,
2613.479,13.950771,
2612.515,14.270414,
2611.550,13.34118,
2610.586,13.288509,
2609.622,14.003806,
2608.658,13.477893,
2607.693,11.588502,
2606.729,9.6660066,
2605.765,7.7825671,
2604.801,8.3365793,
2603.837,11.456998,
2602.872,12.800805,
2601.908,12.107112,
2600.944,11.236564,
2599.980,10.684081,
2599.015,10.822126,
2598.051,12.004069,
2597.087,11.852026,
2596.123,7.994124,
2595.158,4.5751552,
2594.194,5.8698158,
2593.230,7.7643789,
2592.266,7.2862369,
2591.302,6.0363175,
2590.337,4.596359,
2589.373,3.7730466,
2588.409,4.3436734,
2587.445,5.1864191,
2586.480,4.7455224,
2585.516,4.3788931,
2584.552,7.3098712,
2583.588,11.687431,
2582.623,10.060109,
2581.659,4.3733136,
2580.695,3.2724557,
2579.731,4.3344524,
2578.766,4.5331188,
2577.802,4.3658674,
2576.838,4.5313306,
2575.874,4.8602217,
2574.910,4.0577164,
2573.945,2.0949081,
2572.981,1.4298565,
2572.017,3.1434236,
2571.053,4.6733478,
2570.088,4.7757817,
2569.124,3.755553,
2568.160,1.5766815,
2567.196,0.81807433,
2566.231,2.4690869,
2565.267,4.046467,
2564.303,4.1080268,
2563.339,3.3847232,
2562.375,2.7206482,
2561.410,2.9237118,
2560.446,5.3123223,
2559.482,8.2633352,
2558.518,7.9187426,
2557.553,6.0665328,
2556.589,4.9707194,
2555.625,4.4822304,
2554.661,6.1746495,
2553.696,8.2006623,
2552.732,6.9006498,
2551.768,3.7750513,
2550.804,3.4320701,
2549.839,6.123415,
2548.875,8.3630509,
2547.911,8.9625501,
2546.947,7.101893,
2545.983,2.6406013,
2545.018,0.82769801,
2544.054,2.636137,
2543.090,3.7404745,
2542.126,3.549353,
2541.161,3.0051554,
2540.197,2.1591512,
2539.233,1.4908322,
2538.269,1.7601601,
2537.304,3.1339311,
2536.340,5.6959834,
2535.376,8.0997837,
2534.412,7.9661817,
2533.448,7.1898551,
2532.483,7.5126496,
2531.519,7.6410593,
2530.555,6.9196644,
2529.591,5.9845975,
2528.626,5.9281441,
2527.662,6.6483507,
2526.698,6.9640651,
2525.734,6.5443792,
2524.769,5.9368513,
2523.805,5.3208763,
2522.841,5.5464053,
2521.877,6.7783306,
2520.912,5.8195332,
2519.948,2.6313413,
2518.984,0.83592325,
2518.020,0.17932331,
2517.056,0.26505896,
2516.091,1.2456186,
2515.127,2.5535218,
2514.163,3.8929684,
2513.199,5.1707447,
2512.234,5.4878768,
2511.270,5.1505654,
2510.306,4.8270722,
2509.342,4.6400539,
2508.377,5.8716877,
2507.413,7.8053724,
2506.449,8.9886665,
2505.485,9.3324585,
2504.521,8.0905573,
2503.556,6.1691638,
2502.592,5.6113935,
2501.628,6.540537,
2500.664,7.973001,
2499.699,9.5255821,
2498.735,10.682167,
2497.771,11.287336,
2496.807,9.3497319,
2495.842,4.6743833,
2494.878,5.16715,
2493.914,10.947661,
2492.950,13.374314,
2491.985,10.459562,
2491.021,8.3522794,
2490.057,10.416921,
2489.093,12.199336,
2488.129,9.8262338,
2487.164,6.893854,
2486.200,7.1591305,
2485.236,8.1750905,
2484.272,7.4814315,
2483.307,6.6020302,
2482.343,6.647922,
2481.379,7.549966,
2480.415,11.034188,
2479.450,14.799709,
2478.486,13.382416,
2477.522,7.9327515,
2476.558,5.396856,
2475.594,7.000072,
2474.629,8.576579,
2473.665,9.343418,
2472.701,10.150735,
2471.737,10.78359,
2470.772,10.137245,
2469.808,8.247932,
2468.844,7.8350835,
2467.880,9.6782408,
2466.915,10.265881,
2465.951,7.428911,
2464.987,4.4805155,
2464.023,4.9081455,
2463.058,6.8019864,
2462.094,8.3877707,
2461.130,9.9803909,
2460.166,9.1344369,
2459.202,6.8933658,
2458.237,5.2045406,
2457.273,3.7352958,
2456.309,4.496373,
2455.345,6.8460732,
2454.380,8.4829317,
2453.416,8.7923,
2452.452,7.5795003,
2451.488,5.1470716,
2450.523,5.1029242,
2449.559,9.3063355,
2448.595,11.485186,
2447.631,7.8405506,
2446.667,5.9324383,
2445.702,9.6491797,
2444.738,13.070511,
2443.774,13.514107,
2442.810,13.179237,
2441.845,13.436994,
2440.881,13.628785,
2439.917,13.223358,
2438.953,12.888195,
2437.988,13.694731,
2437.024,15.349266,
2436.060,17.635929,
2435.096,20.545395,
2434.131,18.939773,
2433.167,13.866035,
2432.203,13.908119,
2431.239,18.788727,
2430.275,21.839941,
2429.310,21.408929,
2428.346,20.683434,
2427.382,20.737772,
2426.418,19.587668,
2425.453,15.96105,
2424.489,12.161629,
2423.525,11.053078,
2422.561,11.336176,
2421.596,12.554578,
2420.632,14.056426,
2419.668,14.976927,
2418.704,15.346843,
2417.740,14.496152,
2416.775,12.755521,
2415.811,10.771578,
2414.847,9.0163471,
2413.883,9.3186841,
2412.918,12.095045,
2411.954,13.397821,
2410.990,12.05885,
2410.026,11.229741,
2409.061,11.542332,
2408.097,11.200675,
2407.133,9.6385587,
2406.169,8.1211204,
2405.204,7.5139848,
2404.240,7.8054331,
2403.276,9.0375553,
2402.312,11.078955,
2401.348,13.374553,
2400.383,15.151061,
2399.419,13.402811,
2398.455,8.9692111,
2397.491,6.7661282,
2396.526,5.8593832,
2395.562,5.9345717,
2394.598,7.0478462,
2393.634,7.9958864,
2392.669,8.3743464,
2391.705,8.4394764,
2390.741,8.4750166,
2389.777,8.6767677,
2388.813,8.9583039,
2387.848,8.6537562,
2386.884,6.8686908,
2385.920,4.6775709,
2384.956,3.395533,
2383.991,2.8742859,
2383.027,4.0976189,
2382.063,5.4198779,
2381.099,4.5577617,
2380.134,3.1877357,
2379.170,4.7783536,
2378.206,8.7782982,
2377.242,10.926289,
2376.277,10.168666,
2375.313,9.5170475,
2374.349,9.8654294,
2373.385,9.7047782,
2372.421,8.3389511,
2371.456,6.7686319,
2370.492,5.7645235,
2369.528,5.1456204,
2368.564,4.6709067,
2367.599,4.974855,
2366.635,6.8750924,
2365.671,9.2367067,
2364.707,9.6181941,
2363.742,8.0912831,
2362.778,5.9827802,
2361.814,3.847178,
2360.850,4.3925814,
2359.885,7.3813441,
2358.921,9.2163959,
2357.957,9.8265943,
2356.993,9.0821539,
2356.029,7.3747742,
2355.064,7.6291619,
2354.100,11.060308,
2353.136,13.180369,
2352.172,9.9643468,
2351.207,5.4135101,
2350.243,3.4542261,
2349.279,2.5556841,
2348.315,5.8286753,
2347.350,11.000495,
2346.386,9.6641111,
2345.422,6.0078543,
2344.458,4.8890976,
2343.494,5.5441689,
2342.529,5.9054416,
2341.565,5.7944485,
2340.601,6.6777914,
2339.637,8.9181167,
2338.672,10.409956,
2337.708,9.4806521,
2336.744,8.0697078,
2335.780,7.5575429,
2334.815,7.0257003,
2333.851,6.4537208,
2332.887,5.9865753,
2331.923,5.3128381,
2330.958,4.9490131,
2329.994,5.9061842,
2329.030,7.6649665,
2328.066,8.7778016,
2327.102,9.173205,
2326.137,9.9506396,
2325.173,11.166111,
2324.209,11.250626,
2323.245,9.5601897,
2322.280,7.0772728,
2321.316,4.0163286,
2320.352,1.4070445,
2319.388,0.061871978,
2318.423,0,
2317.459,1.400522,
2316.495,3.1250309,
2315.531,3.8344026,
2314.567,4.0391848,
2313.602,4.0452856,
2312.638,3.6127138,
2311.674,4.1220371,
2310.710,5.7030888,
2309.745,7.6423925,
2308.781,10.673493,
2307.817,11.237504,
2306.853,7.536573,
2305.888,5.1152321,
2304.924,7.2288522,
2303.960,9.5224527,
2302.996,7.9414927,
2302.031,5.4462748,
2301.067,6.1920726,
2300.103,8.2310833,
2299.139,8.5975842,
2298.175,8.5246808,
2297.210,6.8049512,
2296.246,3.3375165,
2295.282,3.2577285,
2294.318,5.6859482,
2293.353,7.3963455,
2292.389,8.1497605,
2291.425,8.4900895,
2290.461,8.3413561,
2289.496,7.7769488,
2288.532,6.7457446,
2287.568,5.6571185,
2286.604,6.5397816,
2285.640,7.9219563,
2284.675,5.4651662,
2283.711,1.4960716,
2282.747,2.7228347,
2281.783,6.5669318,
2280.818,6.7173767,
2279.854,3.4187984,
2278.890,2.1796925,
2277.926,4.8523052,
2276.961,7.404459,
2275.997,7.1718961,
2275.033,5.9767843,
2274.069,4.7640456,
2273.104,4.1142952,
2272.140,6.2919373,
2271.176,9.0363275,
2270.212,8.0461962,
2269.248,5.8975688,
2268.283,5.9461583,
2267.319,7.6343472,
2266.355,9.4144796,
2265.391,10.634651,
2264.426,10.307752,
2263.462,8.0074646,
2262.498,5.9250482,
2261.534,5.659038,
2260.569,5.8458597,
2259.605,5.6974277,
2258.641,5.8255093,
2257.677,7.3362081,
2256.713,9.0486646,
2255.748,8.6657112,
2254.784,7.1395447,
2253.820,6.3903313,
2252.856,6.564409,
2251.891,7.2180766,
2250.927,8.2847324,
2249.963,9.1602261,
2248.999,9.265798,
2248.034,8.2367506,
2247.070,5.5320684,
2246.106,4.1607361,
2245.142,7.1626946,
2244.177,10.002837,
2243.213,8.7600688,
2242.249,6.376334,
2241.285,6.2494351,
2240.321,7.6597921,
2239.356,8.5233229,
2238.392,8.5646369,
2237.428,8.1072693,
2236.464,7.0409661,
2235.499,5.5820848,
2234.535,3.8953714,
2233.571,3.0991857,
2232.607,4.0709682,
2231.642,5.2410908,
2230.678,5.5679029,
2229.714,5.1791388,
2228.750,4.1543883,
2227.786,2.9704093,
2226.821,1.9385302,
2225.857,1.1546488,
2224.893,1.3838729,
2223.929,2.8617938,
2222.964,4.3397147,
2222.000,5.2826257,
2221.036,5.4407713,
2220.072,4.5067781,
2219.107,3.5733711,
2218.143,3.2731181,
2217.179,3.9493298,
2216.215,6.1263719,
2215.250,8.4324666,
2214.286,8.9444695,
2213.322,8.2496854,
2212.358,8.158368,
2211.394,8.6241795,
2210.429,8.7032722,
2209.465,8.1959392,
2208.501,7.7426101,
2207.537,8.0250232,
2206.572,7.7240378,
2205.608,5.8980037,
2204.644,4.3399383,
2203.680,4.1180544,
2202.715,4.5850378,
2201.751,5.43166,
2200.787,6.4771101,
2199.823,6.9521501,
2198.859,6.4504812,
2197.894,4.6221521,
2196.930,1.814331,
2195.966,1.3370269,
2195.002,4.2509203,
2194.037,7.4668646,
2193.073,9.8736292,
2192.109,11.042454,
2191.145,10.518848,
2190.180,9.1537858,
2189.216,7.5650424,
2188.252,6.3874319,
2187.288,6.7067941,
2186.323,8.1761561,
2185.359,9.1203718,
2184.395,9.1951539,
2183.431,8.8685687,
2182.467,8.2616125,
2181.502,7.3434746,
2180.538,6.1064891,
2179.574,5.1400602,
2178.610,4.6411605,
2177.645,4.2330325,
2176.681,3.9207051,
2175.717,4.4419716,
2174.753,6.7631404,
2173.788,9.8968581,
2172.824,10.522031,
2171.860,8.1777698,
2170.896,5.9070928,
2169.932,4.4671775,
2168.967,4.4828776,
2168.003,6.8706967,
2167.039,9.0350784,
2166.075,9.620798,
2165.110,9.6364004,
2164.146,9.0640144,
2163.182,8.356277,
2162.218,9.0682173,
2161.253,10.826105,
2160.289,10.940633,
2159.325,9.0443699,
2158.361,8.1590445,
2157.396,9.177186,
2156.432,9.8284817,
2155.468,9.3909591,
2154.504,8.6618349,
2153.540,7.8614704,
2152.575,7.1534888,
2151.611,6.5565912,
2150.647,5.927467,
2149.683,5.3763213,
2148.718,5.3757615,
2147.754,6.7737858,
2146.790,9.5023276,
2145.826,11.300352,
2144.861,10.619226,
2143.897,8.7302382,
2142.933,6.3923738,
2141.969,4.9008472,
2141.005,5.9766058,
2140.040,8.1293175,
2139.076,10.160203,
2138.112,11.941186,
2137.148,13.057033,
2136.183,13.185038,
2135.219,12.135503,
2134.255,9.8931955,
2133.291,7.1235927,
2132.326,4.5821639,
2131.362,3.739026,
2130.398,6.954726,
2129.434,9.9855627,
2128.469,6.4178643,
2127.505,1.3562693,
2126.541,1.3591682,
2125.577,4.2048401,
2124.613,4.8614985,
2123.648,3.2582448,
2122.684,3.2291122,
2121.720,5.9019327,
2120.756,7.8696262,
2119.791,7.1110014,
2118.827,6.4335778,
2117.863,7.6114764,
2116.899,8.5613966,
2115.934,7.5477424,
2114.970,5.7575746,
2114.006,5.078735,
2113.042,5.6286063,
2112.078,6.5637315,
2111.113,7.3553508,
2110.149,7.3098607,
2109.185,5.7996246,
2108.221,3.9691249,
2107.256,3.6671406,
2106.292,4.3800979,
2105.328,5.5741098,
2104.364,7.1385806,
2103.399,7.0726805,
2102.435,5.5204033,
2101.471,4.7495715,
2100.507,4.8417279,
2099.542,4.2772437,
2098.578,3.0702302,
2097.614,3.0993983,
2096.650,5.112258,
2095.686,7.4078324,
2094.721,8.0578502,
2093.757,7.9389715,
2092.793,9.119995,
2091.829,10.91264,
2090.864,9.6427845,
2089.900,6.4003707,
2088.936,4.0188943,
2087.972,1.8712068,
2087.007,1.0910001,
2086.043,2.1192276,
2085.079,3.7363223,
2084.115,4.8440421,
2083.151,5.3936563,
2082.186,5.7738858,
2081.222,6.2330215,
2080.258,6.5085146,
2079.294,6.9301504,
2078.329,7.5622353,
2077.365,7.8354335,
2076.401,7.7779676,
2075.437,7.4314881,
2074.472,5.7955067,
2073.508,2.6750037,
2072.544,0.93418841,
2071.580,2.8368229,
2070.615,6.1365279,
2069.651,7.2761255,
2068.687,6.2839848,
2067.723,4.5220686,
2066.759,2.5706994,
2065.794,2.0889745,
2064.830,3.3801234,
2063.866,4.5639968,
2062.902,5.1957707,
2061.937,5.6898492,
2060.973,5.9106855,
2060.009,5.795389,
2059.045,5.1183738,
2058.080,4.1030774,
2057.116,3.5659547,
2056.152,3.7407949,
2055.188,4.1731547,
2054.224,4.8918426,
2053.259,6.2688312,
2052.295,8.1971383,
2051.331,9.2420467,
2050.367,7.1071703,
2049.402,3.9479773,
2048.438,3.8574367,
2047.474,5.7744156,
2046.510,7.1647344,
2045.545,7.5168206,
2044.581,7.293321,
2043.617,6.6228488,
2042.653,6.5006187,
2041.688,8.4941112,
2040.724,10.81944,
2039.760,9.6463308,
2038.796,6.833964,
2037.832,5.0243316,
2036.867,3.1409688,
2035.903,4.7912484,
2034.939,8.7255612,
2033.975,9.9783802,
2033.010,8.7473609,
2032.046,8.1409024,
2031.082,9.42633,
2030.118,10.405019,
2029.153,8.7058275,
2028.189,5.9116651,
2027.225,5.1249735,
2026.261,5.47461,
2025.297,5.9370394,
2024.332,6.8043518,
2023.368,7.3170254,
2022.404,7.4469841,
2021.440,7.2688862,
2020.475,6.7302414,
2019.511,6.6922803,
2018.547,7.9107156,
2017.583,9.3015142,
2016.618,9.1303988,
2015.654,8.238922,
2014.690,9.5843107,
2013.726,12.699767,
2012.761,12.005068,
2011.797,5.9731614,
2010.833,1.9122999,
2009.869,3.5933583,
2008.905,6.6399225,
2007.940,8.4670043,
2006.976,9.2251895,
2006.012,8.6803965,
2005.048,7.4955643,
2004.083,7.2203512,
2003.119,8.1999722,
2002.155,9.0167514,
2001.191,8.7570653,
2000.226,8.2159833,
1999.262,8.3260729,
1998.298,8.8660456,
1997.334,10.124182,
1996.370,11.652875,
1995.405,9.5087168,
1994.441,5.0330153,
1993.477,3.9246479,
1992.513,6.167013,
1991.548,7.0432648,
1990.584,5.0041356,
1989.620,3.7641276,
1988.656,5.5734942,
1987.691,8.1095699,
1986.727,8.5068272,
1985.763,7.6979318,
1984.799,7.4456773,
1983.834,7.7864892,
1982.870,7.591803,
1981.906,6.6403298,
1980.942,7.5288469,
1979.978,10.87918,
1979.013,13.010764,
1978.049,11.448353,
1977.085,8.368608,
1976.121,6.7867148,
1975.156,6.4526243,
1974.192,6.1161901,
1973.228,5.7349611,
1972.264,5.6364806,
1971.299,5.8333126,
1970.335,5.6973809,
1969.371,4.6900136,
1968.407,4.572246,
1967.443,7.4534449,
1966.478,11.45647,
1965.514,13.353978,
1964.550,12.798946,
1963.586,10.571209,
1962.621,7.1705724,
1961.657,5.2826306,
1960.693,7.8874138,
1959.729,11.106503,
1958.764,9.7501532,
1957.800,7.2770065,
1956.836,9.7534204,
1955.872,14.23877,
1954.907,13.462498,
1953.943,8.9445757,
1952.979,6.0707453,
1952.015,5.6119051,
1951.051,5.4968638,
1950.086,4.9041857,
1949.122,5.2794816,
1948.158,7.9626736,
1947.194,11.653776,
1946.229,14.552886,
1945.265,16.82226,
1944.301,16.138411,
1943.337,12.871763,
1942.372,11.036854,
1941.408,11.097208,
1940.444,11.386518,
1939.480,11.087448,
1938.516,10.287647,
1937.551,9.3821804,
1936.587,8.9817925,
1935.623,9.8395104,
1934.659,11.818273,
1933.694,13.581215,
1932.730,14.276921,
1931.766,13.360127,
1930.802,9.7330791,
1929.837,6.1247811,
1928.873,6.8186315,
1927.909,9.1082341,
1926.945,10.209165,
1925.980,10.276843,
1925.016,9.5680081,
1924.052,8.4261651,
1923.088,8.7604455,
1922.124,11.95244,
1921.159,14.588967,
1920.195,12.775639,
1919.231,9.5706618,
1918.267,9.0185161,
1917.302,10.071644,
1916.338,11.399966,
1915.374,12.640057,
1914.410,13.901144,
1913.445,15.354175,
1912.481,15.255154,
1911.517,12.742217,
1910.553,9.6768392,
1909.589,8.2131211,
1908.624,7.9334855,
1907.660,6.8211349,
1906.696,4.868452,
1905.732,5.5240635,
1904.767,10.215974,
1903.803,14.258618,
1902.839,14.56337,
1901.875,13.685506,
1900.910,11.932837,
1899.946,9.8669841,
1898.982,10.102206,
1898.018,11.97815,
1897.053,12.82763,
1896.089,11.964267,
1895.125,10.727858,
1894.161,9.5184509,
1893.197,8.352256,
1892.232,8.6081316,
1891.268,9.5202087,
1890.304,10.567295,
1889.340,12.153299,
1888.375,12.185102,
1887.411,11.020226,
1886.447,10.197781,
1885.483,9.8929154,
1884.518,9.3493764,
1883.554,8.2593053,
1882.590,8.0929645,
1881.626,10.658069,
1880.662,14.525859,
1879.697,15.651461,
1878.733,13.183655,
1877.769,10.27625,
1876.805,8.5786097,
1875.840,8.0135387,
1874.876,9.2230848,
1873.912,10.566616,
1872.948,9.4046287,
1871.983,6.8588531,
1871.019,5.9277745,
1870.055,7.083268,
1869.091,8.8579027,
1868.126,10.597771,
1867.162,11.374309,
1866.198,8.7015314,
1865.234,5.3097595,
1864.270,6.9548219,
1863.305,11.257447,
1862.341,13.131069,
1861.377,13.472219,
1860.413,12.144424,
1859.448,9.2638464,
1858.484,7.701969,
1857.520,8.8268601,
1856.556,10.960491,
1855.591,12.076983,
1854.627,11.990009,
1853.663,11.498005,
1852.699,10.897261,
1851.734,10.417268,
1850.770,10.746652,
1849.806,11.697812,
1848.842,12.156785,
1847.878,12.252281,
1846.913,12.343774,
1845.949,11.807531,
1844.985,10.331006,
1844.021,8.5059943,
1843.056,8.4530528,
1842.092,10.863052,
1841.128,12.734768,
1840.164,12.019668,
1839.199,10.523417,
1838.235,9.9384932,
1837.271,9.6483939,
1836.307,9.1554624,
1835.343,8.586749,
1834.378,8.2422199,
1833.414,8.2742032,
1832.450,9.0105323,
1831.486,10.354968,
1830.521,11.712195,
1829.557,12.722304,
1828.593,12.744962,
1827.629,10.621672,
1826.664,7.1397397,
1825.700,6.0793406,
1824.736,9.3314416,
1823.772,12.104441,
1822.807,9.3401848,
1821.843,5.2228518,
1820.879,6.9831408,
1819.915,11.436222,
1818.951,13.392624,
1817.986,14.437843,
1817.022,13.273933,
1816.058,10.126526,
1815.094,8.532,
1814.129,10.319993,
1813.165,12.792864,
1812.201,12.840148,
1811.237,11.365901,
1810.272,11.260206,
1809.308,12.802902,
1808.344,13.6496,
1807.380,13.021788,
1806.416,12.572052,
1805.451,13.05293,
1804.487,13.323456,
1803.523,12.394375,
1802.559,10.841123,
1801.594,10.669657,
1800.630,12.109423,
1799.666,12.329559,
1798.702,9.4238653,
1797.737,6.8673424,
1796.773,8.8054098,
1795.809,12.604464,
1794.845,13.974612,
1793.880,13.834652,
1792.916,12.278239,
1791.952,9.0618631,
1790.988,7.1081344,
1790.024,7.5594245,
1789.059,8.8930389,
1788.095,9.814251,
1787.131,10.336489,
1786.167,10.804136,
1785.202,10.96573,
1784.238,10.068973,
1783.274,8.052783,
1782.310,6.90837,
1781.345,8.9272099,
1780.381,11.944244,
1779.417,12.260546,
1778.453,11.351114,
1777.489,11.831282,
1776.524,12.866968,
1775.560,12.401483,
1774.596,10.478087,
1773.632,9.5829623,
1772.667,10.923141,
1771.703,12.629335,
1770.739,12.715997,
1769.775,12.155296,
1768.810,12.91027,
1767.846,14.681992,
1766.882,15.794385,
1765.918,15.753607,
1764.953,14.468004,
1763.989,11.396903,
1763.025,8.2698936,
1762.061,7.3458148,
1761.097,7.6841862,
1760.132,9.0371575,
1759.168,11.238907,
1758.204,12.619539,
1757.240,12.49731,
1756.275,12.43143,
1755.311,12.694602,
1754.347,12.716466,
1753.383,12.44214,
1752.418,11.917861,
1751.454,12.204226,
1750.490,13.6215,
1749.526,13.85689,
1748.562,11.484223,
1747.597,9.170002,
1746.633,10.107735,
1745.669,13.086483,
1744.705,14.344236,
1743.740,12.991735,
1742.776,11.459155,
1741.812,10.690492,
1740.848,9.3922861,
1739.883,7.7691304,
1738.919,6.8155064,
1737.955,8.1896651,
1736.991,10.915914,
1736.026,9.9413822,
1735.062,6.0576696,
1734.098,5.3297188,
1733.134,9.4109763,
1732.170,13.575585,
1731.205,13.840827,
1730.241,11.900551,
1729.277,11.771849,
1728.313,13.919513,
1727.348,15.249305,
1726.384,14.384371,
1725.420,13.63643,
1724.456,14.512073,
1723.491,15.577902,
1722.527,15.953397,
1721.563,15.550037,
1720.599,13.257368,
1719.635,10.225442,
1718.670,8.735557,
1717.706,8.9596387,
1716.742,10.185086,
1715.778,12.124994,
1714.813,13.983994,
1713.849,14.121559,
1712.885,12.922307,
1711.921,13.364218,
1710.956,16.54934,
1709.992,19.390812,
1709.028,19.470075,
1708.064,18.175999,
1707.099,15.193202,
1706.135,10.739802,
1705.171,7.1694065,
1704.207,4.8345592,
1703.243,5.7537735,
1702.278,10.277286,
1701.314,14.79357,
1700.350,16.241106,
1699.386,15.703923,
1698.421,14.421673,
1697.457,12.927016,
1696.493,12.334472,
1695.529,12.765706,
1694.564,13.081806,
1693.600,12.82642,
1692.636,12.120007,
1691.672,10.447582,
1690.708,8.5961017,
1689.743,8.689496,
1688.779,10.757502,
1687.815,13.033172,
1686.851,14.630572,
1685.886,15.627969,
1684.922,15.600174,
1683.958,15.052505,
1682.994,14.168457,
1682.029,13.059509,
1681.065,11.660718,
1680.101,9.6640241,
1679.137,8.7240703,
1678.172,10.107895,
1677.208,12.285371,
1676.244,13.64283,
1675.280,14.183051,
1674.316,13.552275,
1673.351,11.493131,
1672.387,9.9240763,
1671.423,11.206142,
1670.459,13.49148,
1669.494,14.878675,
1668.530,16.11958,
1667.566,16.81483,
1666.602,16.898753,
1665.637,14.55372,
1664.673,9.7859829,
1663.709,7.0549144,
1662.745,8.9898734,
1661.781,13.234903,
1660.816,16.762061,
1659.852,18.932921,
1658.888,20.058322,
1657.924,19.882306,
1656.959,18.120304,
1655.995,14.145706,
1655.031,9.5857543,
1654.067,9.4721482,
1653.102,11.849976,
1652.138,12.370578,
1651.174,11.465546,
1650.210,11.297329,
1649.245,12.073596,
1648.281,12.620174,
1647.317,12.450785,
1646.353,12.453077,
1645.389,13.750827,
1644.424,15.883245,
1643.460,16.377725,
1642.496,13.474693,
1641.532,9.8791821,
1640.567,9.4930938,
1639.603,10.768384,
1638.639,12.650607,
1637.675,14.975261,
1636.710,14.653676,
1635.746,12.323497,
1634.782,11.451081,
1633.818,13.235452,
1632.854,15.240821,
1631.889,15.037496,
1630.925,13.077142,
1629.961,11.207996,
1628.997,10.133922,
1628.032,10.141194,
1627.068,12.480106,
1626.104,15.649681,
1625.140,16.374776,
1624.175,16.416716,
1623.211,16.608314,
1622.247,16.303721,
1621.283,15.11524,
1620.318,13.337746,
1619.354,12.472118,
1618.390,13.210786,
1617.426,14.41044,
1616.462,14.517175,
1615.497,13.166636,
1614.533,10.882793,
1613.569,8.1617453,
1612.605,6.4837456,
1611.640,8.3143397,
1610.676,11.755146,
1609.712,12.320512,
1608.748,11.535342,
1607.783,12.561109,
1606.819,15.034581,
1605.855,16.438276,
1604.891,16.121464,
1603.927,15.492594,
1602.962,15.683204,
1601.998,15.838707,
1601.034,14.073798,
1600.070,10.354693,
1599.105,7.9537996,
1598.141,10.030951,
1597.177,13.383983,
1596.213,12.385744,
1595.248,9.7336474,
1594.284,11.465975,
1593.320,15.757287,
1592.356,16.974674,
1591.391,14.655537,
1590.427,12.190014,
1589.463,11.696169,
1588.499,12.139776,
1587.535,11.494662,
1586.570,9.5509638,
1585.606,8.2100986,
1584.642,9.036031,
1583.678,11.007322,
1582.713,13.306203,
1581.749,15.953033,
1580.785,14.100595,
1579.821,9.2775516,
1578.856,6.8938645,
1577.892,6.6846388,
1576.928,8.0444721,
1575.964,10.747106,
1575.000,13.251011,
1574.035,13.670539,
1573.071,12.460429,
1572.107,12.243387,
1571.143,14.233521,
1570.178,15.892208,
1569.214,14.039975,
1568.250,10.572691,
1567.286,9.8989133,
1566.321,10.497742,
1565.357,9.8621457,
1564.393,8.3890023,
1563.429,8.4491976,
1562.464,10.751538,
1561.500,13.477268,
1560.536,14.788154,
1559.572,15.033169,
1558.608,15.904944,
1557.643,17.890485,
1556.679,19.093609,
1555.715,17.504054,
1554.751,14.788035,
1553.786,13.689839,
1552.822,13.611954,
1551.858,15.480456,
1550.894,18.780305,
1549.929,19.388798,
1548.965,16.241042,
1548.001,12.400267,
1547.037,10.647676,
1546.073,10.931273,
1545.108,12.202789,
1544.144,13.799158,
1543.180,14.408614,
1542.216,12.39165,
1541.251,10.599886,
1540.287,13.110648,
1539.323,17.375979,
1538.359,18.95602,
1537.394,18.339428,
1536.430,17.343487,
1535.466,16.412053,
1534.502,16.019827,
1533.537,16.915442,
1532.573,18.061889,
1531.609,17.188117,
1530.645,14.264542,
1529.681,12.954865,
1528.716,15.855575,
1527.752,18.800868,
1526.788,18.620428,
1525.824,17.053415,
1524.859,15.44695,
1523.895,14.002395,
1522.931,15.045215,
1521.967,19.50278,
1521.002,23.702044,
1520.038,23.834368,
1519.074,22.20746,
1518.110,22.365614,
1517.146,24.240316,
1516.181,24.10584,
1515.217,20.843682,
1514.253,18.102417,
1513.289,18.760521,
1512.324,20.858417,
1511.360,20.88029,
1510.396,18.655581,
1509.432,16.748549,
1508.467,16.531893,
1507.503,17.024374,
1506.539,17.340825,
1505.575,17.512647,
1504.610,18.635056,
1503.646,20.729489,
1502.682,21.541107,
1501.718,21.056877,
1500.754,19.911952,
1499.789,17.96107,
1498.825,15.983431,
1497.861,16.180693,
1496.897,18.677126,
1495.932,20.063062,
1494.968,17.762082,
1494.004,14.396748,
1493.040,13.082974,
1492.075,12.512806,
1491.111,14.153468,
1490.147,17.218205,
1489.183,18.67264,
1488.219,18.086642,
1487.254,16.851086,
1486.290,16.157133,
1485.326,16.271381,
1484.362,16.985532,
1483.397,17.896654,
1482.433,18.068523,
1481.469,16.493631,
1480.505,14.417713,
1479.540,16.47495,
1478.576,21.152111,
1477.612,20.761251,
1476.648,16.649787,
1475.683,13.738912,
1474.719,13.281745,
1473.755,14.42076,
1472.791,16.608015,
1471.827,19.371314,
1470.862,21.518597,
1469.898,22.152354,
1468.934,21.676197,
1467.970,19.821283,
1467.005,17.517981,
1466.041,17.21238,
1465.077,17.860689,
1464.113,18.765034,
1463.148,20.136637,
1462.184,21.576342,
1461.220,22.5671,
1460.256,23.173653,
1459.292,23.66562,
1458.327,24.132154,
1457.363,24.494594,
1456.399,24.800412,
1455.435,25.742484,
1454.470,28.034458,
1453.506,30.675993,
1452.542,31.612937,
1451.578,31.305144,
1450.613,32.098038,
1449.649,34.603723,
1448.685,38.068393,
1447.721,42.704495,
1446.756,48.332937,
1445.792,53.031493,
1444.828,56.861443,
1443.864,61.152925,
1442.900,66.357486,
1441.935,75.648716,
1440.971,91.633207,
1440.007,112.90354,
1439.043,136.94121,
1438.078,162.22293,
1437.114,187.93081,
1436.150,213.06319,
1435.186,238.1808,
1434.221,260.38047,
1433.257,281.55155,
1432.293,291.89853,
1431.329,293.49923,
1430.365,292.25881,
1429.400,289.72642,
1428.436,289.75306,
1427.472,296.14585,
1426.508,308.74981,
1425.543,324.93401,
1424.579,342.26683,
1423.615,353.878,
1422.651,344.09736,
1421.686,321.60861,
1420.722,293.77575,
1419.758,258.19466,
1418.794,227.88576,
1417.829,202.30345,
1416.865,178.61802,
1415.901,156.174,
1414.937,136.28511,
1413.973,121.64156,
1413.008,112.12137,
1412.044,103.50186,
1411.080,92.895619,
1410.116,81.586389,
1409.151,68.861142,
1408.187,56.866555,
1407.223,51.131353,
1406.259,50.565088,
1405.294,47.695157,
1404.330,38.925531,
1403.366,29.216394,
1402.402,23.400766,
1401.438,20.058378,
1400.473,19.319718,
1399.509,20.561864,
1398.545,20.59791,
1397.581,18.683856,
1396.616,17.325565,
1395.652,18.693737,
1394.688,21.763081,
1393.724,23.42027,
1392.759,22.248019,
1391.795,20.541051,
1390.831,21.217338,
1389.867,23.536104,
1388.902,22.853894,
1387.938,20.399172,
1386.974,21.144452,
1386.010,24.886947,
1385.046,28.503076,
1384.081,30.459347,
1383.117,31.568884,
1382.153,32.960938,
1381.189,34.571307,
1380.224,35.656575,
1379.260,35.827636,
1378.296,35.467103,
1377.332,35.367122,
1376.367,35.544722,
1375.403,37.224427,
1374.439,40.250567,
1373.475,42.710492,
1372.511,43.827842,
1371.546,45.12327,
1370.582,47.999798,
1369.618,51.730726,
1368.654,53.699097,
1367.689,53.171092,
1366.725,52.951329,
1365.761,54.607742,
1364.797,56.859811,
1363.832,58.006016,
1362.868,58.31101,
1361.904,60.070839,
1360.940,64.935603,
1359.975,71.012041,
1359.011,74.023041,
1358.047,75.013433,
1357.083,75.051784,
1356.119,74.426111,
1355.154,73.46231,
1354.190,72.193135,
1353.226,71.716486,
1352.262,73.44458,
1351.297,77.034925,
1350.333,79.753154,
1349.369,79.231782,
1348.405,77.544051,
1347.440,78.382199,
1346.476,80.276484,
1345.512,82.447426,
1344.548,85.101965,
1343.583,87.992642,
1342.619,90.886766,
1341.655,94.968758,
1340.691,101.87456,
1339.727,110.86782,
1338.762,118.8977,
1337.798,124.7789,
1336.834,131.66825,
1335.870,141.68318,
1334.905,152.66971,
1333.941,160.9992,
1332.977,166.59611,
1332.013,171.62784,
1331.048,176.98771,
1330.084,181.0565,
1329.120,181.96904,
1328.156,181.31651,
1327.192,181.26274,
1326.227,180.57987,
1325.263,178.26692,
1324.299,174.41531,
1323.335,170.99978,
1322.370,169.75833,
1321.406,170.30409,
1320.442,170.5663,
1319.478,169.3138,
1318.513,167.75219,
1317.549,168.61459,
1316.585,171.15659,
1315.621,170.46455,
1314.656,166.87207,
1313.692,164.48145,
1312.728,164.25465,
1311.764,164.36129,
1310.800,163.62693,
1309.835,162.52504,
1308.871,161.13374,
1307.907,158.82988,
1306.943,154.88043,
1305.978,149.51871,
1305.014,144.44435,
1304.050,141.52653,
1303.086,140.37015,
1302.121,139.18617,
1301.157,136.86518,
1300.193,133.21929,
1299.229,126.24551,
1298.265,116.82886,
1297.300,111.66022,
1296.336,109.12727,
1295.372,106.42806,
1294.408,102.64257,
1293.443,97.220898,
1292.479,89.745016,
1291.515,81.380966,
1290.551,75.869356,
1289.586,76.069026,
1288.622,76.82857,
1287.658,70.316251,
1286.694,61.11097,
1285.729,55.930346,
1284.765,54.698698,
1283.801,53.98761,
1282.837,51.977885,
1281.873,49.779829,
1280.908,48.909508,
1279.944,49.130741,
1278.980,48.825117,
1278.016,48.316903,
1277.051,48.51027,
1276.087,49.21486,
1275.123,49.863984,
1274.159,50.179116,
1273.194,50.260178,
1272.230,50.595483,
1271.266,51.976864,
1270.302,54.293785,
1269.338,55.150852,
1268.373,55.363677,
1267.409,57.614299,
1266.445,61.278441,
1265.481,63.483888,
1264.516,62.852872,
1263.552,61.330003,
1262.588,62.370465,
1261.624,66.715027,
1260.659,70.7364,
1259.695,71.5605,
1258.731,71.669955,
1257.767,71.504072,
1256.802,70.942094,
1255.838,71.615224,
1254.874,74.239671,
1253.910,77.112553,
1252.946,78.169227,
1251.981,78.421649,
1251.017,76.873633,
1250.053,73.576449,
1249.089,69.731169,
1248.124,65.742776,
1247.160,62.749005,
1246.196,61.674775,
1245.232,61.824513,
1244.267,61.132354,
1243.303,58.411006,
1242.339,55.54341,
1241.375,55.154574,
1240.411,55.539472,
1239.446,53.785994,
1238.482,50.260006,
1237.518,47.98617,
1236.554,48.074249,
1235.589,48.739469,
1234.625,48.201038,
1233.661,46.721726,
1232.697,44.098082,
1231.732,40.515309,
1230.768,37.090647,
1229.804,34.281067,
1228.840,32.010695,
1227.875,30.481045,
1226.911,29.627718,
1225.947,28.675262,
1224.983,27.150304,
1224.019,26.220309,
1223.054,26.035294,
1222.090,26.159169,
1221.126,26.821768,
1220.162,27.772877,
1219.197,27.238825,
1218.233,24.092767,
1217.269,19.952323,
1216.305,18.625501,
1215.340,21.390667,
1214.376,24.036944,
1213.412,24.08239,
1212.448,23.982194,
1211.484,26.422603,
1210.519,31.159171,
1209.555,34.913774,
1208.591,35.334763,
1207.627,34.756126,
1206.662,37.25043,
1205.698,40.833993,
1204.734,42.508739,
1203.770,43.0757,
1202.805,43.623718,
1201.841,44.540731,
1200.877,45.990994,
1199.913,48.225344,
1198.948,51.237275,
1197.984,54.084906,
1197.020,55.506261,
1196.056,56.949153,
1195.092,60.573198,
1194.127,65.68103,
1193.163,68.955801,
1192.199,69.099575,
1191.235,68.947542,
1190.270,72.504349,
1189.306,78.085959,
1188.342,81.496617,
1187.378,83.636142,
1186.413,85.988999,
1185.449,88.383834,
1184.485,90.960371,
1183.521,94.407177,
1182.557,98.852793,
1181.592,102.94036,
1180.628,105.0879,
1179.664,106.6242,
1178.700,109.3161,
1177.735,112.26187,
1176.771,112.21234,
1175.807,109.0838,
1174.843,106.23338,
1173.878,106.27323,
1172.914,107.5351,
1171.950,107.58733,
1170.986,106.42571,
1170.021,106.50284,
1169.057,108.54258,
1168.093,110.9329,
1167.129,111.64491,
1166.165,110.1743,
1165.200,107.47547,
1164.236,104.37555,
1163.272,100.39136,
1162.308,90.499293,
1161.343,77.134764,
1160.379,68.489519,
1159.415,62.955023,
1158.451,55.941904,
1157.486,45.427435,
1156.522,33.873706,
1155.558,25.597816,
1154.594,21.408101,
1153.630,18.58722,
1152.665,15.890817,
1151.701,13.060526,
1150.737,9.0260836,
1149.773,4.3869049,
1148.808,1.6357506,
1147.844,2.6478776,
1146.880,5.2508248,
1145.916,5.9169549,
1144.951,6.5422678,
1143.987,5.005192,
1143.023,1.9383845,
1142.059,0.81722526,
1141.094,3.1375202,
1140.130,7.1344204,
1139.166,9.8345982,
1138.202,10.438386,
1137.238,10.082652,
1136.273,8.9252095,
1135.309,7.7976018,
1134.345,8.7622296,
1133.381,11.916993,
1132.416,16.027518,
1131.452,20.113678,
1130.488,23.951895,
1129.524,24.99274,
1128.559,24.024553,
1127.595,28.2032,
1126.631,36.518216,
1125.667,43.732798,
1124.703,47.103477,
1123.738,48.134755,
1122.774,50.31174,
1121.810,54.942963,
1120.846,60.468626,
1119.881,66.165603,
1118.917,71.656426,
1117.953,75.83426,
1116.989,78.670588,
1116.024,79.789584,
1115.060,78.559795,
1114.096,76.021955,
1113.132,76.947104,
1112.167,79.842025,
1111.203,80.863899,
1110.239,79.965318,
1109.275,79.703012,
1108.311,81.836314,
1107.346,85.451748,
1106.382,87.699155,
1105.418,87.216551,
1104.454,87.309752,
1103.489,90.337784,
1102.525,94.629884,
1101.561,99.048036,
1100.597,103.15235,
1099.632,105.94731,
1098.668,106.4461,
1097.704,105.67515,
1096.740,104.0667,
1095.776,101.3167,
1094.811,99.805611,
1093.847,99.626321,
1092.883,99.873728,
1091.919,99.822658,
1090.954,99.396496,
1089.990,98.862455,
1089.026,98.075545,
1088.062,96.417587,
1087.097,93.663392,
1086.133,90.385454,
1085.169,87.394198,
1084.205,84.814167,
1083.240,81.924572,
1082.276,77.832632,
1081.312,72.912756,
1080.348,71.132194,
1079.384,71.130043,
1078.419,70.222383,
1077.455,68.045817,
1076.491,65.267207,
1075.527,62.55204,
1074.562,60.038472,
1073.598,57.756172,
1072.634,55.723109,
1071.670,53.504673,
1070.705,51.339772,
1069.741,49.169628,
1068.777,47.148611,
1067.813,45.67457,
1066.849,45.278593,
1065.884,46.481923,
1064.920,48.747462,
1063.956,48.962228,
1062.992,47.478296,
1062.027,45.495336,
1061.063,43.719056,
1060.099,41.997166,
1059.135,39.677764,
1058.170,36.546985,
1057.206,34.574606,
1056.242,36.837923,
1055.278,40.512762,
1054.313,42.024316,
1053.349,41.528653,
1052.385,40.753296,
1051.421,40.631305,
1050.457,40.372916,
1049.492,38.401418,
1048.528,35.317922,
1047.564,33.640286,
1046.600,33.515973,
1045.635,33.22334,
1044.671,31.279893,
1043.707,28.144575,
1042.743,26.501544,
1041.778,28.538979,
1040.814,30.791311,
1039.850,30.328944,
1038.886,28.690986,
1037.922,28.592534,
1036.957,30.885927,
1035.993,33.614768,
1035.029,33.797276,
1034.065,32.533685,
1033.100,30.595587,
1032.136,28.061488,
1031.172,26.908638,
1030.208,27.773321,
1029.243,29.39474,
1028.279,29.694145,
1027.315,28.009412,
1026.351,27.032198,
1025.386,28.997222,
1024.422,31.983097,
1023.458,34.01716,
1022.494,34.642004,
1021.530,33.483684,
1020.565,29.83001,
1019.601,24.726381,
1018.637,24.471972,
1017.673,26.347248,
1016.708,27.876092,
1015.744,29.062601,
1014.780,29.382361,
1013.816,28.158077,
1012.851,25.877691,
1011.887,25.34799,
1010.923,28.735279,
1009.959,32.320614,
1008.995,34.368452,
1008.030,35.199687,
1007.066,34.649086,
1006.102,32.445996,
1005.138,29.6514,
1004.173,28.880485,
1003.209,28.297219,
1002.245,28.222986,
1001.281,29.282393,
1000.316,30.140533,
999.352,29.784268,
998.388,28.652273,
997.424,28.175448,
996.459,28.69902,
995.495,29.331864,
994.531,29.964564,
993.567,30.362354,
992.603,29.863804,
991.638,28.442842,
990.674,27.35298,
989.710,28.807167,
988.746,31.8051,
987.781,31.88365,
986.817,29.955901,
985.853,29.652077,
984.889,32.228185,
983.924,35.768404,
982.960,37.157356,
981.996,36.035511,
981.032,35.042383,
980.068,35.02518,
979.103,35.977607,
978.139,38.376519,
977.175,42.064588,
976.211,45.526149,
975.246,46.268364,
974.282,45.424062,
973.318,47.229029,
972.354,50.266464,
971.389,52.210492,
970.425,52.790994,
969.461,53.342154,
968.497,55.236622,
967.532,58.160043,
966.568,60.363836,
965.604,61.693561,
964.640,62.22567,
963.676,61.893873,
962.711,61.190539,
961.747,61.252578,
960.783,63.23074,
959.819,65.820909,
958.854,67.804053,
957.890,69.859211,
956.926,69.840303,
955.962,67.359228,
954.997,64.145351,
954.033,62.316719,
953.069,60.250638,
952.105,58.169421,
951.141,56.870727,
950.176,56.229207,
949.212,55.884958,
948.248,55.425269,
947.284,54.522862,
946.319,53.06289,
945.355,51.203306,
944.391,48.885417,
943.427,46.111866,
942.462,43.325231,
941.498,40.955538,
940.534,39.763923,
939.570,40.85912,
938.605,43.695532,
937.641,43.228183,
936.677,40.718598,
935.713,39.104814,
934.749,39.509634,
933.784,41.01836,
932.820,41.790268,
931.856,41.198846,
930.892,39.991896,
929.927,38.148964,
928.963,36.356271,
927.999,36.465387,
927.035,38.623428,
926.070,40.731323,
925.106,39.925157,
924.142,38.072359,
923.178,35.92049,
922.214,32.838196,
921.249,31.471269,
920.285,32.560438,
919.321,35.039211,
918.357,37.648255,
917.392,40.497827,
916.428,41.345351,
915.464,39.317532,
914.500,35.970815,
913.535,32.957789,
912.571,31.197116,
911.607,30.959862,
910.643,33.44593,
909.678,36.569259,
908.714,35.745463,
907.750,32.603068,
906.786,30.826441,
905.822,32.10698,
904.857,34.531852,
903.893,33.708631,
902.929,29.416123,
901.965,28.642623,
901.000,32.065252,
900.036,36.389203,
899.072,38.575797,
898.108,37.936071,
897.143,36.427453,
896.179,34.583137,
895.215,32.034186,
894.251,30.415116,
893.287,29.872856,
892.322,30.457725,
891.358,32.221549,
890.394,34.695868,
889.430,34.932397,
888.465,34.282159,
887.501,33.747742,
886.537,33.225971,
885.573,33.413669,
884.608,35.214458,
883.644,38.442832,
882.680,39.775896,
881.716,37.42756,
880.751,35.143533,
879.787,35.440415,
878.823,37.845985,
877.859,40.099311,
876.895,40.249904,
875.930,39.258894,
874.966,39.678431,
874.002,40.952802,
873.038,40.987424,
872.073,39.344998,
871.109,37.008335,
870.145,35.255119,
869.181,34.031489,
868.216,34.2242,
867.252,36.102359,
866.288,38.355125,
865.324,39.555156,
864.359,39.218376,
863.395,38.313327,
862.431,38.112823,
861.467,37.978435,
860.503,37.146923,
859.538,36.213753,
858.574,37.184635,
857.610,41.167969,
856.646,46.291733,
855.681,46.284588,
854.717,43.148049,
853.753,42.579625,
852.789,45.080781,
851.824,48.628274,
850.860,50.903794,
849.896,51.130929,
848.932,50.529642,
847.968,49.945104,
847.003,49.458372,
846.039,49.518121,
845.075,50.3141,
844.111,51.784594,
843.146,53.706011,
842.182,55.456778,
841.218,54.860133,
840.254,53.076083,
839.289,51.274893,
838.325,49.762084,
837.361,48.691951,
836.397,48.970206,
835.432,50.675368,
834.468,51.894637,
833.504,52.284076,
832.540,52.42078,
831.576,52.689415,
830.611,53.020698,
829.647,52.961845,
828.683,51.627209,
827.719,49.531929,
826.754,46.71624,
825.790,43.034096,
824.826,39.594235,
823.862,37.90812,
822.897,37.45834,
821.933,36.521874,
820.969,35.334369,
820.005,33.916852,
819.041,32.27251,
818.076,30.245521,
817.112,27.561834,
816.148,24.029369,
815.184,21.577576,
814.219,21.731747,
813.255,22.281523,
812.291,20.02666,
811.327,14.0552,
810.362,7.6274048,
809.398,8.2490846,
808.434,12.66554,
807.470,13.969934,
806.505,13.274329,
805.541,12.296204,
804.577,11.91217,
803.613,11.727454,
802.649,11.041809,
801.684,10.106409,
800.720,8.7555299,
799.756,6.585608,
798.792,4.1809486,
797.827,3.2390967,
796.863,6.1576366,
795.899,9.7223676,
794.935,7.1703508,
793.970,1.8728018,
793.006,0,
792.042,3.8862669,
791.078,9.515942,
790.114,9.3854123,
789.149,6.8837399,
788.185,5.3260615,
787.221,4.794897,
786.257,5.1428827,
785.292,6.2005854,
784.328,7.7356806,
783.364,8.6864495,
782.400,8.23341,
781.435,7.33247,
780.471,6.9027214,
779.507,7.1859123,
778.543,7.666027,
777.578,7.3931631,
776.614,6.517565,
775.650,6.7469472,
774.686,7.5871693,
773.722,7.2453602,
772.757,4.8779652,
771.793,1.8817858,
770.829,2.319829,
769.865,6.0105592,
768.900,9.4682186,
767.936,11.646877,
766.972,12.568504,
766.008,12.630756,
765.043,11.898428,
764.079,11.403502,
763.115,13.042219,
762.151,15.762625,
761.187,18.296947,
760.222,20.079307,
759.258,21.033298,
758.294,19.745589,
757.330,16.858418,
756.365,15.079176,
755.401,14.279332,
754.437,14.439411,
753.473,15.605958,
752.508,17.66269,
751.544,19.986805,
750.580,22.11507,
749.616,23.589186,
748.651,23.787372,
747.687,22.842151,
746.723,21.818659,
745.759,22.560645,
744.795,24.422943,
743.830,26.640809,
742.866,29.149835,
741.902,30.456909,
740.938,29.333611,
739.973,26.719934,
739.009,26.997027,
738.045,29.255858,
737.081,32.155315,
736.116,35.344567,
735.152,38.968194,
734.188,43.429907,
733.224,48.990203,
732.260,54.893272,
731.295,59.993511,
730.331,64.335645,
729.367,68.190912,
728.403,71.938807,
727.438,75.965316,
726.474,81.740307,
725.510,88.436348,
724.546,92.427549,
723.581,93.695559,
722.617,94.953711,
721.653,99.906291,
720.689,108.20638,
719.724,115.5114,
718.760,121.134,
717.796,126.82594,
716.832,134.2579,
715.868,144.1379,
714.903,155.52405,
713.939,167.38989,
712.975,179.97999,
712.011,193.56277,
711.046,208.05828,
710.082,223.09022,
709.118,238.15109,
708.154,254.11168,
707.189,270.43981,
706.225,286.85099,
705.261,302.48934,
704.297,316.98034,
703.333,330.44544,
702.368,343.43099,
701.404,356.41565,
700.440,369.42695,
699.476,382.26226,
698.511,394.72718,
697.547,406.75945,
696.583,418.62982,
695.619,428.88444,
694.654,434.69341,
693.690,437.71256,
692.726,441.02885,
691.762,446.42724,
690.797,452.29538,
689.833,452.51659,
688.869,449.56659,
687.905,445.23447,
686.941,439.7586,
685.976,433.07953,
685.012,425.21336,
684.048,416.11321,
683.084,406.1904,
682.119,396.29637,
681.155,386.0386,
680.191,374.67075,
679.227,361.64965,
678.262,348.13095,
677.298,336.42933,
676.334,324.75732,
675.370,313.0838,
674.406,301.54854,
673.441,289.99435,
672.477,277.73569,
671.513,265.59569,
670.549,255.76781,
669.584,247.90818,
668.620,240.57673,
667.656,232.49733,
666.692,223.29512,
665.727,214.94824,
664.763,208.42393,
663.799,203.69002,
662.835,201.63426,
661.870,202.43034,
660.906,204.45031,
659.942,202.19644,
658.978,198.51329,
658.014,198.52578,
657.049,201.90848,
656.085,208.08329,
655.121,217.47537,
654.157,230.42823,
653.192,245.07238,
652.228,260.85922,
651.264,277.81523,
650.300,295.94583,
649.335,315.32404,
648.371,335.50524,
647.407,355.72946,
646.443,376.14814,
645.479,396.75786,
644.514,418.01782,
643.550,440.84941,
642.586,466.70687,
641.622,493.78464,
640.657,515.82164,
639.693,534.20117,
638.729,552.07444,
637.765,572.19436,
636.800,594.12299,
635.836,614.64811,
634.872,633.60195,
633.908,648.9499,
632.943,658.93498,
631.979,663.10763,
631.015,662.91126,
630.051,657.16686,
629.087,644.60697,
628.122,623.6833,
627.158,595.80444,
626.194,565.36258,
625.230,539.52754,
624.265,515.27701,
623.301,498.26258,
622.337,485.61953,
621.373,474.14288,
620.408,462.24546,
619.444,451.66256,
618.480,446.69425,
617.516,446.38628,
616.552,447.63369,
615.587,448.21555,
614.623,447.06682,
613.659,444.48135,
612.695,439.75422,
611.730,435.31466,
610.766,433.62296,
609.802,434.20015,
608.838,434.57156,
607.873,431.07706,
606.909,424.70192,
605.945,411.02624,
604.981,391.70411,
604.016,368.98568,
603.052,344.56385,
602.088,318.50209,
601.124,291.8659,
600.160,264.0819,
599.195,236.84972,
598.231,211.77135,
597.267,189.56474,
596.303,169.76464,
595.338,153.9748,
594.374,140.35237,
593.410,126.68298,
592.446,113.00094,
591.481,101.48511,
590.517,96.031737,
589.553,95.794085,
588.589,91.784995,
587.625,85.652857,
586.660,79.484053,
585.696,74.803874,
584.732,71.464118,
583.768,67.141306,
582.803,62.037444,
581.839,57.579428,
580.875,54.588991,
579.911,53.096407,
578.946,52.070864,
577.982,50.872225,
577.018,49.751856,
576.054,48.758879,
575.089,48.106871,
574.125,48.125124,
573.161,49.267988,
572.197,51.338831,
571.233,51.589559,
570.268,50.294481,
569.304,48.986661,
568.340,49.504869,
567.376,51.895147,
566.411,52.257589,
565.447,50.086538,
564.483,47.099664,
563.519,45.024072,
562.554,44.726556,
561.590,44.297299,
560.626,41.573857,
559.662,38.490207,
558.698,37.659829,
557.733,39.943807,
556.769,43.415089,
555.805,41.269185,
554.841,36.642956,
553.876,35.145928,
552.912,36.750804,
551.948,39.390397,
550.984,40.640828,
550.019,40.729592,
549.055,41.444573,
548.091,42.983677,
547.127,44.556816,
546.162,44.970532,
545.198,43.107536,
544.234,40.444344,
543.270,39.141895,
542.306,38.602777,
541.341,38.227381,
540.377,37.718742,
539.413,37.596483,
538.449,37.589262,
537.484,37.377254,
536.520,37.409096,
535.556,37.815351,
534.592,38.177076,
533.627,36.732647,
532.663,33.936071,
531.699,31.502434,
530.735,29.92485,
529.771,28.888967,
528.806,27.355526,
527.842,24.438832,
526.878,21.883661,
525.914,20.786206,
524.949,20.748174,
523.985,20.618785,
523.021,18.908731,
522.057,16.374411,
521.092,14.553225,
520.128,13.268708,
519.164,12.345575,
518.200,11.610747,
517.235,10.871147,
516.271,11.017481,
515.307,12.007322,
514.343,12.999702,
513.379,13.381535,
512.414,12.994813,
511.450,12.356431,
510.486,11.612922,
509.522,11.157109,
508.557,11.450084,
507.593,12.390276,
506.629,12.897362,
505.665,10.731645,
504.700,7.9087319,
503.736,6.1433348,
502.772,5.6681604,
501.808,5.8995076,
500.844,6.1084913,
499.879,6.3841739,
498.915,7.1598568,
497.951,8.4397387,
496.987,10.002873,
496.022,11.492032,
495.058,12.69003,
494.094,12.889492,
493.130,11.762196,
492.165,10.246863,
491.201,9.7248899,
490.237,11.63944,
489.273,14.35731,
488.308,15.638413,
487.344,15.82435,
486.380,14.840413,
485.416,12.597639,
484.452,9.6950018,
483.487,9.1225401,
482.523,9.8984182,
481.559,11.315263,
480.595,12.869364,
479.630,14.365945,
478.666,16.774001,
477.702,20.553737,
476.738,24.480055,
475.773,27.571461,
474.809,29.090015,
473.845,28.68352,
472.881,22.869212,
471.917,15.023654,
470.952,9.7836631,
469.988,8.1037795,
469.024,7.706025,
468.060,5.4203307,
467.095,3.2081296,
466.131,2.3869812,
465.167,2.7956955,
464.203,3.7458154,
463.238,4.3002325,
462.274,4.1995716,
461.310,3.3536462,
460.346,1.9148511,
459.381,0.51885364,
458.417,0,
457.453,1.0602779,
456.489,2.5081835,
455.525,3.9865963,
454.560,5.4560756,
453.596,6.7022237,
452.632,7.2329813,
451.668,7.5918642,
450.703,8.4709129,
449.739,9.4687607,
448.775,9.914118,
447.811,9.2366727,
446.846,7.7193837,
445.882,7.3696727,
444.918,8.2627352,
443.954,9.4472528,
442.990,9.9814284,
442.025,9.3269812,
441.061,9.352026,
440.097,11.336934,
439.133,13.904948,
438.168,15.831213,
437.204,16.409286,
436.240,16.473345,
435.276,16.274122,
434.311,15.988132,
433.347,16.978166,
432.383,19.861561,
431.419,23.858579,
430.454,25.691436,
429.490,26.623219,
428.526,27.771361,
427.562,29.540692,
426.598,31.642982,
425.633,32.276962,
424.669,30.459918,
423.705,28.686136,
422.741,28.70991,
421.776,30.928559,
420.812,33.714639,
419.848,33.734753,
418.884,33.046418,
417.919,32.264286,
416.955,31.511206,
415.991,30.812861,
415.027,32.094108,
414.063,34.444786,
413.098,35.153182,
412.134,33.984672,
411.170,32.011523,
410.206,31.791793,
409.241,34.073967,
408.277,35.388318,
407.313,34.671956,
406.349,32.564482,
405.384,31.173609,
404.420,33.558078,
403.456,36.529363,
402.492,37.654749,
401.527,37.061485,
400.563,35.889751,
399.599,35.343752,
398.635,34.8145,
397.671,35.77392,
396.706,38.014493,
395.742,41.038169,
394.778,44.30765,
393.814,47.983084,
392.849,50.90549,
391.885,53.128536,
390.921,54.949479,
389.957,56.803769,
388.992,58.916266,
388.028,61.160647,
387.064,63.665183,
386.100,66.442673,
385.136,69.310635,
384.171,71.808435,
383.207,74.074251,
382.243,77.552371,
381.279,81.990505,
380.314,86.173657,
379.350,88.142888,
378.386,88.879995,
377.422,92.767195,
376.457,99.186187,
375.493,106.49136,
374.529,112.68759,
373.565,116.83217,
372.600,121.38802,
371.636,127.1307,
370.672,133.27523,
369.708,138.7279,
368.744,142.53162,
367.779,147.37488,
366.815,154.78185,
365.851,163.39308,
364.887,171.59844,
363.922,177.81123,
362.958,183.12164,
361.994,189.55019,
361.030,197.15995,
360.065,205.21987,
359.101,212.50824,
358.137,218.32805,
357.173,220.44314,
356.208,219.27497,
355.244,215.69616,
354.280,210.72053,
353.316,204.79117,
352.352,198.21597,
351.387,191.60782,
350.423,184.59052,
349.459,176.90082,
348.495,168.69682,
347.530,160.34598,
346.566,152.88157,
345.602,146.08167,
344.638,140.62126,
343.673,137.88264,
342.709,137.47349,
341.745,135.10699,
340.781,131.55982,
339.817,127.30347,
338.852,122.58462,
337.888,117.25224,
336.924,112.54936,
335.960,108.791,
334.995,105.70189,
334.031,102.89607,
333.067,100.37044,
332.103,98.679121,
331.138,98.079261,
330.174,98.419937,
329.210,98.931114,
328.246,97.716218,
327.281,95.427492,
326.317,96.287005,
325.353,99.586566,
324.389,103.04965,
323.425,102.9701,
322.460,99.967755,
321.496,96.693823,
320.532,93.224829,
319.568,89.822722,
318.603,86.90377,
317.639,85.255089,
316.675,85.207673,
315.711,87.322855,
314.746,90.80752,
313.782,93.823527,
312.818,91.884708,
311.854,88.841977,
310.890,88.333577,
309.925,89.895048,
308.961,91.373023,
307.997,88.522727,
307.033,83.39933,
306.068,80.12101,
305.104,79.069833,
304.140,79.435015,
303.176,79.177737,
302.211,77.83813,
301.247,76.384952,
300.283,74.828503,
299.319,72.889684,
298.354,69.912382,
297.390,65.098998,
296.426,59.783908,
295.462,55.203678,
294.498,51.917443,
293.533,49.643319,
292.569,47.508646,
291.605,45.070849,
290.641,42.72441,
289.676,40.777042,
288.712,39.402528,
287.748,36.553842,
286.784,32.954474,
285.819,30.407937,
284.855,29.512035,
283.891,29.882977,
282.927,28.561049,
281.963,25.249326,
280.998,22.38194,
280.034,21.462698,
279.070,23.154979,
278.106,25.224213,
277.141,25.457999,
276.177,24.638219,
275.213,22.642123,
274.249,19.261308,
273.284,15.364184,
272.320,13.312081,
271.356,11.825504,
270.392,11.771985,
269.427,14.213876,
268.463,19.104155,
267.499,20.075636,
266.535,17.543942,
265.571,13.655217,
264.606,10.770155,
263.642,10.257944,
262.678,10.401153,
261.714,11.11653,
260.749,12.086448,
259.785,12.649334,
258.821,11.09225,
257.857,9.3496683,
256.892,9.6914613,
255.928,11.481398,
254.964,13.154735,
254.000,11.664057,
253.036,8.6238674,
252.071,6.5285021,
251.107,5.1991036,
250.143,4.6557891,
249.179,6.2198477,
248.214,10.159102,
247.250,12.629264,
246.286,12.502258,
245.322,10.002644,
244.357,7.4959511,
243.393,7.0929687,
242.429,7.0624472,
241.465,7.02216,
240.500,6.84408,
239.536,6.6985682,
238.572,7.4111619,
237.608,8.59983,
236.644,8.6404021,
235.679,6.6332205,
234.715,3.2141736,
233.751,2.1231539,
232.787,2.1494684,
231.822,2.6651872,
230.858,3.2915504,
229.894,4.1013121,
228.930,5.4491109,
227.965,6.9996929,
227.001,8.2764957,
226.037,8.8338646,
225.073,8.2952865,
224.109,6.9827827,
223.144,4.7882475,
222.180,2.2448842,
221.216,0.47173582,
220.252,2.0198227,
219.287,5.161868,
218.323,6.7297922,
217.359,7.1130484,
216.395,6.8336094,
215.430,5.7259477,
214.466,3.6322996,
213.502,2.6256633,
212.538,3.0328955,
211.573,4.497325,
210.609,5.3408561,
209.645,4.6732544,
208.681,3.9866586,
207.717,3.873012,
206.752,4.5628961,
205.788,5.5881081,
204.824,6.8926892,
203.860,8.4395692,
202.895,9.6884249,
201.931,10.193283,
200.967,10.230324,
200.003,11.919695,
199.038,14.11657,
198.074,15.448455,
197.110,14.890202,
196.146,13.679753,
195.182,15.469678,
194.217,19.613204,
193.253,24.225002,
192.289,26.930306,
191.325,25.357875,
190.360,23.501899,
189.396,23.610183,
188.432,25.619258,
187.468,28.416691,
186.503,30.317795,
185.539,32.237997,
184.575,33.732662,
183.611,34.625616,
182.646,34.97698,
181.682,37.443603,
180.718,40.888186,
179.754,43.945133,
178.790,46.315857,
177.825,48.527448,
176.861,49.980011,
175.897,50.539205,
174.933,51.266373,
173.968,52.945154,
173.004,56.209138,
172.040,60.277217,
171.076,64.319559,
170.111,68.692967,
169.147,73.773193,
168.183,80.136751,
167.219,87.368183,
166.255,94.821394,
165.290,102.41488,
164.326,109.53457,
163.362,113.94839,
162.398,116.51351,
161.433,118.43556,
160.469,119.90497,
159.505,121.18435,
158.541,123.47623,
157.576,126.55588,
156.612,130.45861,
155.648,135.1167,
154.684,140.15655,
153.719,142.6771,
152.755,140.87466,
151.791,138.17795,
150.827,137.50664,
149.863,141.60761,
148.898,148.44851,
147.934,153.81349,
146.970,158.2718,
146.006,161.23147,
145.041,161.01745,
144.077,157.89961,
143.113,157.43552,
142.149,158.77236,
141.184,160.866,
140.220,162.44889,
139.256,163.8886,
138.292,165.84466,
137.328,168.32269,
136.363,171.03793,
135.399,172.99361,
134.435,173.17087,
133.471,172.99953,
132.506,173.75989,
131.542,176.46267,
130.578,180.5488,
129.614,183.6697,
128.649,186.2035,
127.685,188.43654,
126.721,190.64695,
125.757,192.87111,
124.792,196.44173,
123.828,200.93699,
122.864,205.73537,
121.900,209.94422,
120.936,213.64925,
119.971,219.05169,
119.007,226.5055,
118.043,235.35389,
117.079,242.81893,
116.114,245.86516,
115.150,248.61492,
114.186,253.64153,
113.222,262.58034,
112.257,273.85631,
111.293,284.0862,
110.329,293.56185,
109.365,301.50661,
108.401,306.78719,
107.436,309.89153,
106.472,318.95803,
105.508,332.34002,
104.544,347.65783,
103.579,361.23153,
102.615,372.56658,
101.651,383.7762,
100.687,395.12572,
99.722,407.11339,
98.758,421.04689,
97.794,438.34337,
96.830,457.53063,
95.865,478.27532,
94.901,500.3424,
93.937,523.67077,
92.973,548.99596,
92.009,577.04155,
91.044,609.58702,
90.080,648.34752,
89.116,693.1494,
88.152,730.7163,
87.187,763.63073,
86.223,794.48125,
85.259,827.31273,
84.295,862.33928,
83.330,892.19414,
82.366,915.76085,
81.402,933.24846,
80.438,945.40825,
79.474,951.25548,
78.509,952.85997,
77.545,951.9627,
76.581,950.47814,
75.617,948.53521,
74.652,948.93731,
73.688,950.88939,
72.724,954.78038,
71.760,962.22777,
70.795,969.252,
69.831,969.72033,
68.867,966.57738,
67.903,963.87261,
66.938,969.0844,
65.974,979.81426,
65.010,992.79375,
64.046,1007.1474,
63.082,1022.2276,
62.117,1036.0021,
61.153,1047.3364,
60.189,1057.9015,
59.225,1068.827,
58.260,1081.2862,
57.296,1092.5685,
56.332,1101.6709,
55.368,1109.5008,
54.403,1116.9239,
53.439,1124.4258,
52.475,1131.5339,
51.511,1139.8351,
50.547,1149.9917,
